Eigenstate,Potential Energy
1,0.500000000018733917964401114518192189
2,0.64623093777339981635687279000017742
3,0.73633761006417811503295366131638696
4,0.79966527856241550994794573838863795
5,0.8480465765816787586163177853251223
6,0.8870659988756867488738102840707647
7,0.9197208268821657275505442055512383
8,0.9477838469778315004824075170733062
9,0.9723835581688329138698492840021557
10,0.9942802146036614599752955198261444
11,1.0140093864233024093032730906325020
12,1.0319621689323470867086410209704257
13,1.0484326921965741325158209144683047
14,1.0636476538991049664461127839880644
15,1.0777854351545850137166648607100885
16,1.090988905379626538809772042179049
17,1.103374255754311628710830231903353
18,1.115037250228390836458881837637604
19,1.126057748625260301697083540588449
20,1.136503044275897888067942572254067
21,1.146430370100560170970679964384409
22,1.155888809767522449742938741835152
23,1.164920775629603324946069781613491
24,1.173563166124586807004728116679455
25,1.181848282571148675173280811417356
26,1.189804562976444207415190606035051
27,1.197457174998684003220035848878250
28,1.204828499306173814024388225430441
29,1.211938526779266475605980931066553
30,1.218805187352186468363540745614224
31,1.225444624145749131911633994245235
32,1.231871423464096976126562795764314
33,1.238098808918927726970955578570113
34,1.244138806194142479516140155342500
35,1.250002383624647265078677564017553
36,1.255699572729562460997850556808558
37,1.261239572036009923194943071440483
38,1.266630836899228978620522576667687
39,1.271881157526923765264498135054572
40,1.276997727019923623928771221429608
41,1.281987200924487972298535627940796
42,1.286855749536594490389710887697599
43,1.291609103992063101572209286918723
44,1.296252597008274217896593772948747
45,1.300791199005670149481344810223878
46,1.305229550224092295146892070905325
47,1.309571989355530119169966307804405
48,1.313822579137271554799582001463145
49,1.317985129284781931292848073415504
50,1.32206321708951580758680617043047
51,1.32606020596139913325948054614038
52,1.32997926215737394314191698523007
53,1.33382336990494767340372846122391
54,1.33759534510212805548422533039076
55,1.34129784775164905173422803016991
56,1.34493339326731872651261153613669
57,1.34850436277312098136616442602649
58,1.35201301250090589663340658286935
59,1.35546148237974947454048069175496
60,1.35885180389903907115718043463671
61,1.36218590731777657707854768041113
62,1.36546562828429040158565284360004
63,1.36869271392330542602005289759750
64,1.37186882844100761218559127061560
65,1.37499555829320511161942921598180
66,1.37807441695684038252108638380834
67,1.38110684934084552980323395562857
68,1.38409423586857692292015638510008
69,1.38703789626075247540358608944249
70,1.38993909304488670177217077581533
71,1.39279903481461996375007320897249
72,1.39561887926004007535086061090710
73,1.39839973598804142997960521119673
74,1.40114266914994796415369122383815
75,1.40384869989199517134003287183179
76,1.40651880864281682265138493934293
77,1.40915393725077965272649394713841
78,1.41175499098284347093878880159796
79,1.41432284039557733808621321669980
80,1.41685832308802432307044795621413
81,1.41936224534525801259725263572771
82,1.42183538368071249637623456945543
83,1.42427848628467881650873815933187
84,1.42669227438573657803647918737338
85,1.42907744353133014144989485901793
86,1.43143466479318295256593056744924
87,1.43376458590278609438509816438587
88,1.43606783232177376780200673006603
89,1.43834500825161490588207466864428
90,1.44059669758670690968786464267392
91,1.44282346481463604158782321875189
92,1.44502585586708071444106236020942
93,1.44720439892457165999623678962302
94,1.44935960517808003110444549100361
95,1.45149196955018333831708831754035
96,1.45360197137835729932320483710928
97,1.45569007506275733757119660275621
98,1.45775673068068059212514644161547
99,1.45980237456974582861682285382127
100,1.46182742988168230073838768533836
101,1.46383230710848930756634756882022
102,1.46581740458260261728622019195307
103,1.46778310895259601427449516788809
104,1.46972979563583896178407557482529
105,1.47165782924943829872245946869163
106,1.47356756402070112476824581829720
107,1.47545934417827794611610426069998
108,1.47733350432506591458598477457014
109,1.47919036979388339929816470321980
110,1.48103025698686470999068395569960
111,1.48285347369945792985719062994924
112,1.48466031942985938214974775137184
113,1.48645108567466271899707148990410
114,1.48822605621145186313234748677408
115,1.48998550736902658472216858560727
116,1.49172970828590116383995565397704
117,1.49345892115768487612042329244720
118,1.49517340147391200802610920375872
119,1.49687339824485539444066559630698
120,1.49855915421883162906865198658934
121,1.50023090609046783087732888396915
122,1.50188888470038093668315249772652
123,1.50353331522668829705370402397461
124,1.50516441736875067288709674003836
125,1.50678240552351916376782111781508
126,1.50838748895484240190039825809253
127,1.50997987195606976753585114253806
128,1.51155975400626379461608812766019
129,1.51312732992032286212318969013352
130,1.51468278999329688475334184724201
131,1.51622632013916331241705768706874
132,1.51775810202431577086654093245190
133,1.51927831319600589416710783843582
134,1.52078712720596762377069315606419
135,1.52228471372943514060699528610645
136,1.52377123867976190907747510162156
137,1.52524686431883500389377931777055
138,1.52671174936346527871162908761145
139,1.52816604908793182960552874729957
140,1.52960991542284376046144541644934
141,1.53104349705047769987461386513500
142,1.53246693949674144587253573129982
143,1.53388038521990546461401132732254
144,1.53528397369623678957794285016797
145,1.53667784150266567999669705952796
146,1.53806212239660752853777829792525
147,1.53943694739305430527159271211943
148,1.54080244483905086692976981523943
149,1.54215874048565793238419724140486
150,1.54350595755750536519976560505774
151,1.54484421682003167748995251152199
152,1.54617363664450005421987285514521
153,1.54749433307087984762465013655415
154,1.54880641986867744095896767181905
155,1.55011000859579471754393117307832
156,1.55140520865549300144728461839074
157,1.55269212735153351637297862294861
158,1.55397086994156618083362440788051
159,1.5552415396888304124113506911821
160,1.5565042379122342786168861378772
161,1.5577590640348704904379401500454
162,1.5590061156310286996483175353173
163,1.5602454884717589531472118994321
164,1.5614772765690409408937142504028
165,1.5627015722186076376242502567492
166,1.5639184660414738539117719248404
167,1.5651280470242169288561982469421
168,1.5663304025580522532896686248145
169,1.5675256184767486855572326795943
170,1.5687137790934236029587554973734
171,1.5698949672362577832827767865640
172,1.5710692642831679830603291722352
173,1.5722367501954726148393916410469
174,1.5733975035505863669640001447803
175,1.5745516015737777507609573183869
176,1.5756991201690192814568885358880
177,1.5768401339489635533330427413301
178,1.5779747162640743634839334867816
179,1.5791029392309393290954718399522
180,1.5802248737597949446113849443968
181,1.5813405895812867273438427687005
182,1.5824501552724921468834597933506
183,1.5835536382822293875523422229245
184,1.5846511049556761854058680459921
185,1.5857426205583205478761245858236
186,1.5868282492992643246458570293907
187,1.5879080543539034302197277204854
188,1.5889820978860001544765778375458
189,1.5900504410691712922595246088888
190,1.5911131441078077430476235159540
191,1.5921702662574448032265511143533
192,1.5932218658445995331262631372370
193,1.5942680002860935026379275217866
194,1.5953087261078742561565127795120
195,1.5963440989633534291709236498569
196,1.5973741736512752083641647077605
197,1.5983990041331295105067126655481
198,1.5994186435501240420839783668992
199,1.6004331442397280734732180729646
200,1.6014425577518018678307131222782
201,1.6024469348643227410678122945529
202,1.6034463255987211290269882734262
203,1.6044407792348373165397471039453
204,1.6054303443255104432277165028822
205,1.6064150687108097513587355995097
206,1.6073949995319210944546745895253
207,1.6083701832446945772762762098075
208,1.6093406656328675485894444873312
209,1.6103064918209686895403570030016
210,1.6112677062869146932382530794108
211,1.6122243528743068945020750078608
212,1.6131764748044380768928482760513
213,1.6141241146880138349195318335172
214,1.6150673145366034671016297853561
215,1.6160061157738196061130613134353
216,1.6169405592462405404575295835693
217,1.6178706852340791867105749429185
218,1.6187965334616076847710007842087
219,1.6197181431073408890502840090812
220,1.6206355528139912637202989580877
221,1.6215488006981930843016790639148
222,1.6224579243600131429506429649335
223,1.6233629608922415182676825750498
224,1.6242639468894774689184753515307
225,1.6251609184570130076015604367693
226,1.6260539112195176932955856600654
227,1.6269429603295332846244000313350
228,1.6278281004757800645311496926627
229,1.6287093658912819883964620229660
230,1.6295867903613153418287505235385
231,1.6304604072311826973808641534858
232,1.6313302494138225790973846786571
233,1.6321963493972498203804156806043
234,1.6330587392518427612230772105328
235,1.6339174506374704558938052764722
236,1.6347725148104695898226831869721
237,1.6356239626304747257995166428396
238,1.6364718245671036104769159287857
239,1.6373161307065029767404006074624
240,1.6381569107577569953438694720811
241,1.6389941940591626571398921655869
242,1.6398280095843749418355625810490
243,1.6406583859484258040270091656480
244,1.6414853514136186647283920886731
245,1.6423089338953027814855209892307
246,1.6431291609675300156207784443868
247,1.6439460598685953783736579237285
248,1.6447596575064689364697352338922
249,1.6455699804641140456121233977116
250,1.6463770550047022959943536107773
251,1.6471809070767230692400167774317
252,1.6479815623189905046622803123326
253,1.6487790460655529464396495806838
254,1.6495733833505045279581692717214
255,1.6503645989127027727427038181635
256,1.6511527172003922967370807673439
257,1.6519377623757410026706636386844
258,1.6527197583192852105630439416574
259,1.6534987286342905272104842536019
260,1.6542746966510288403514306239939
261,1.6550476854309717505612531587157
262,1.6558177177709051656012966361430
263,1.6565848162069639071017808447778
264,1.6573490030185917797295209061162
265,1.6581103002324256273655744109610
266,1.6588687296261055433228746349454
267,1.6596243127320144471333985739054
268,1.6603770708409470609013509986767
269,1.6611270250057125544190931937915
270,1.6618741960446665824672533898553
271,1.6626186045451819975328341597911
272,1.6633602708670522167865852805569
273,1.6640992151458346857110078745999
274,1.6648354572961316466734847290854
275,1.6655690170148120873007778309102
276,1.6662999137841731462837733705431
277,1.6670281668750484599031600153293
278,1.6677537953498552031999015681241
279,1.6684768180655913282356830548995
280,1.6691972536767750922891664912898
281,1.6699151206383347647916082904573
282,1.6706304372084460092502506637149
283,1.6713432214513201525860472899887
284,1.6720534912399404984011895517671
285,1.6727612642587534914169844172641
286,1.6734665580063107578076599888127
287,1.6741693897978670807013056263451
288,1.6748697767679307126039387774878
289,1.6755677358727706727911624408760
290,1.6762632838928817621745365268078
291,1.6769564374354051365631906880806
292,1.6776472129365073232070103310561
293,1.6783356266637215863762062825756
294,1.6790216947182466788716319723372
295,1.6797054330372050665908161973111
296,1.6803868573958682116894917599021
297,1.6810659834098388460433253741256
298,1.6817428265371995517411499855294
299,1.6824174020806244514447179561206
300,1.6830897251894557591978694637305
301,1.6837598108617456031002741127782
302,1.6844276739462652127557000016671
303,1.6850933291444786446004034584440
304,1.6857567910124846226184793749491
305,1.6864180739629279229475171199355
306,1.6870771922668795655713410081223
307,1.6877341600556829950503114458356
308,1.6883889913227737287144979587421
309,1.6890416999254685615823072466838
310,1.6896922995867246631477607263519
311,1.6903408038968721609362361114131
312,1.6909872263153177239580987580430
313,1.6916315801722205388058011614923
314,1.6922738786701424826651304987030
315,1.6929141348856718128805677901892
316,1.6935523617710217487135521740150
317,1.6941885721556014838955840046520
318,1.6948227787475649812182024844012
319,1.6954549941353346907185785107450
320,1.6960852307891001927159397669311
321,1.6967135010622956846303065695023
322,1.6973398171930524260108449010434
323,1.6979641913056296558105695290296
324,1.6985866354118229590435086019898
325,1.6992071614123518448021272703335
326,1.6998257810982247728588295799322
327,1.7004425061520844496033491671531
328,1.7010573481495305825079460329759
329,1.7016703185604250679754786175216
330,1.7022814287501760442333575358212
331,1.7028906899810022478460816023058
332,1.7034981134131787350673817412954
333,1.7041037101062643465660613881912
334,1.7047074910203090995277306626303
335,1.7053094670170458220439044661316
336,1.7059096488610620878187343697721
337,1.7065080472209553234178668229296
338,1.7071046726704721468902278211812
339,1.7076995356896280022481963570292
340,1.7082926466658131811250995153879
341,1.7088840158948809451660587177820
342,1.7094736535822202462800980671694
343,1.7100615698438126825213363374048
344,1.7106477747072736832845124499278
345,1.7112322781128797431276384019049
346,1.7118150899145791789950563225792
347,1.7123962198809899761777001337168
348,1.7129756776963815347133266328015
349,1.7135534729616438611292732237826
350,1.7141296151952417478470666158985
351,1.7147041138341560278310570326419
352,1.7152769782348115868247421248655
353,1.7158482176739914175320462834451
354,1.7164178413497381301987009928090
355,1.7169858583822432848565589147164
356,1.7175522778147227549989953669868
357,1.7181171086142813617114253140131
358,1.7186803596727660222437540628346
359,1.7192420398076031581497220016779
360,1.7198021577626293008984345380029
361,1.7203607222089066398136732333139
362,1.7209177417455299939277292747936
363,1.7214732249004198033501266183195
364,1.7220271801311061641321573664044
365,1.7225796158255021429822628686149
366,1.7231305403026652494895553143523
367,1.7236799618135499578543485940597
368,1.7242278885417480668429849176445
369,1.7247743286042215305009892736867
370,1.7253192900520234727893250631522
371,1.7258627808710102394416266079767
372,1.7264048089825434435115280244174
373,1.7269453822441819713151475885536
374,1.7274845084503682572380435197305
375,1.7280221953330995189663046295064
376,1.7285584505625954093473456185522
377,1.7290932817479538740812811831693
378,1.7296266964377983826438792624014
379,1.7301587021209183722333436537975
380,1.7306893062268996614955608424272
381,1.7312185161267477094533667766835
382,1.7317463391335008378002471729662
383,1.7322727825028380912094406673016
384,1.7327978534336766993491024284726
385,1.7333215590687627618479082672228
386,1.7338439064952558148527671334992
387,1.7343649027453030285034235832687
388,1.7348845547966069721103996345577
389,1.7354028695729876217092570537254
390,1.7359198539449357990833514754459
391,1.7364355147301583591820118739040
392,1.7369498586941187342961844125808
393,1.7374628925505703084627387979687
394,1.7379746229620812031790939499557
395,1.7384850565405533312844908428780
396,1.7389941998477353698592377574072
397,1.7395020593957292820336040976371
398,1.7400086416474903958237750044661
399,1.7405139530173196057689312744414
400,1.7410179998713519973103371611631
401,1.7415207885280379428141443840783
402,1.7420223252586174144374238844766
403,1.7425226162875903345593444826459
404,1.7430216677931808568495437625887
405,1.7435194859077930434010019377967
406,1.7440160767184640469441101209186
407,1.7445114462673119148439411993366
408,1.7450056005519755180564930867661
409,1.7454985455260494661030365414263
410,1.7459902870995165225222158668105
411,1.7464808311391717807999144258878
412,1.7469701834690421833474894216674
413,1.7474583498708024625697792279145
414,1.7479453360841839278496261803923
415,1.7484311478073803823931357305258
416,1.7489157906974475995500289015488
417,1.7493992703706992070772983792559
418,1.7498815924030961425639111777164
419,1.7503627623306339585095095110456
420,1.7508427856497229589605545145809
421,1.7513216678175651198687515775249
422,1.7517994142525270747552023080698
423,1.7522760303345070018020236026477
424,1.7527515214052990260764801130651
425,1.7532258927689515162283507790656
426,1.7536991496921228824813998103481
427,1.7541712974044323605283706057813
428,1.7546423410988057949972661938085
429,1.7551122859318203348561061322474
430,1.7555811370240409028406194016664
431,1.7560488994603559425380815310061
432,1.7565155782903095926198130916539
433,1.7569811785284256260971820446417
434,1.7574457051545342525160351358724
435,1.7579091631140896067405002571159
436,1.7583715573184858252936063122758
437,1.7588328926453698716002428784843
438,1.7592931739389500921727471845505
439,1.7597524060103011850184843786420
440,1.7602105936376666514583724176408
441,1.7606677415667558911831632949045
442,1.7611238545110395041679941731652
443,1.7615789371520424471141533209223
444,1.7620329941396296637622016842293
445,1.7624860300922935197077154983542
446,1.7629380495974340660410811439304
447,1.7633890572116393009516177102165
448,1.7638390574609586474685906402782
449,1.7642880548411774878147084364470
450,1.7647360538180849067833140029201
451,1.7651830588277421472034859893839
452,1.7656290742767446188106082775785
453,1.7660741045424832035631078662600
454,1.7665181539734012463225158772375
455,1.7669612268892508547376808720825
456,1.7674033275813438052990371881429
457,1.7678444603128017512377766246097
458,1.7682846293188021281323396870588
459,1.7687238388068222711139845452540
460,1.7691620929568813859798246615706
461,1.7695993959217782239035101647772
462,1.7700357518273276727591665739388
463,1.7704711647725948687938879746422
464,1.7709056388301249895190190110978
465,1.7713391780461726965193468597054
466,1.7717717864409283588404037692989
467,1.7722034680087403374331493929711
468,1.7726342267183383462592642860616
469,1.7730640665130503667161226582936
470,1.7734929913110206398837378698918
471,1.7739210050054230036615812155216
472,1.7743481114646738723682280387896
473,1.7747743145326402096660914694545
474,1.7751996180288499987650744929792
475,1.7756240257486941326191068406945
476,1.7760475414636322378796421960683
477,1.7764701689213927655607159717710
478,1.7768919118461720243615794204626
479,1.7773127739388310459873004684879
480,1.7777327588770906770048270643841
481,1.7781518703157234480642984819756
482,1.7785701118867457892271642463768
483,1.7789874871996059713517181216270
484,1.7794039998413705932433675142543
485,1.7798196533769110913980475044676
486,1.7802344513490848570822254166882
487,1.7806483972789178094823515056486
488,1.7810614946657830213587050946940
489,1.7814737469875786252518426703829
490,1.7818851577009028632325135114058
491,1.7822957302412284143421679899428
492,1.7827054680230745877718074174405
493,1.7831143744401773566475490934386
494,1.7835224528656583263192060746542
495,1.7839297066521908295021920154842
496,1.7843361391321663925456957807757
497,1.7847417536178572581975128604558
498,1.7851465534015789099657766921489
499,1.7855505417558500952426675327176
500,1.785953721933552477504395648585
501,1.786356097168085663436702592654
502,1.786757670673525059974982454044
503,1.787158445644774029188628708715
504,1.787558425257718184648073562583
505,1.787957612669374676535657698624
506,1.788356011018042195380178088935
507,1.788753623423449542231219005203
508,1.789150452986902405015871225844
509,1.789546502791426571749456431910
510,1.789941775901913633613252281566
511,1.790336275365262408750103940465
512,1.790730004210519986745402765226
513,1.791122965449021009302537755080
514,1.791515162074525863345466159164
515,1.791906597063358160617724685455
516,1.792297273374539713937332778611
517,1.792687193949924084668493559318
518,1.793076361714330486619301962598
519,1.793464779575674828131782823857
520,1.793852450425100749191102770757
521,1.794239377137107448605458761328
522,1.794625562569678577281716431884
523,1.795011009564408634576799754557
