Eigenstate,Potential Energy
1,0.500000000023255719858325734997378703
2,0.64623093780291576219533765754626684
3,0.73633761015087873105045595499855957
4,0.79966527874300272724837327772380801
5,0.8480465768944921866062269633677907
6,0.8870659993597366129441701727546432
7,0.9197208275767764251324434556829354
8,0.9477838479224928321513455372582872
9,0.9723835594031307981541760253579206
10,0.9942802161672426690054184588566672
11,1.0140093883558553198559368623922766
12,1.0319621712735905923931105916856672
13,1.0484326949862509988572612863624614
14,1.0636476571769777428051362356913148
15,1.0777854389604334876426290500736281
16,1.090988909753246159219351580881477
17,1.103374260735512559221140976094071
18,1.115037255856997431265656505837069
19,1.126057754941110872474610410024950
20,1.136503051318844676115948356608669
21,1.146430377910469467209333679619413
22,1.155888818384274823252421127636919
23,1.164920785093093932576820005903469
24,1.173563176474725764493179204207768
25,1.181848293847861475593531183951791
26,1.189804575219672176546642779816853
27,1.197457188248384784060936271030236
28,1.204828513602321874583015538239083
29,1.211938542161853635485614347598571
30,1.218805203861222440678313627022452
31,1.225444641821262077832487840225600
32,1.231871442346134069931796453034874
33,1.238098829047555729914657873201026
34,1.244138827609448321165744440810995
35,1.250002406366738631035523309330785
36,1.255699596838568386120494767882897
37,1.261239597552081389607606763812444
38,1.266630863862539517918511873251674
39,1.271881185977670064432201629078999
40,1.276997756998326134569566490356678
41,1.281987232470791522843923260496409
42,1.286855782691068901010520663987987
43,1.291609138795003801560337904099263
44,1.296252633500002865323389637581366
45,1.300791237226535252970018476956593
46,1.305229590214469837622401280214155
47,1.309572031155824183471655653380666
48,1.313822622787914951060251180063232
49,1.317985174826236826003438338689781
50,1.32206326456227435427907645049575
51,1.32606025540598410475027159163275
52,1.32997931361433936529219470312555
53,1.33382342341487946035382165022506
54,1.33759540070564464633377556478788
55,1.34129790548940204864147450146305
56,1.34493345317999353419295508519745
57,1.34850442490143744797454814836425
58,1.35201307688561895601909976572859
59,1.35546154906164978986633877363363
60,1.35885187291895367987856611267229
61,1.36218597871656953727979479605403
62,1.36546570210286343967436179192408
63,1.36869279020259858578161928233676
64,1.37186890722199990520223948927177
65,1.37499563961691516905971979007965
66,1.37807450086432710830732441862171
67,1.38110693587320875516556618572117
68,1.38409432506695806234731903786829
69,1.38703798816633518400136486592611
70,1.38993918769889753404156580164772
71,1.39279913225832903379808914931171
72,1.39561897953476171854758044555334
73,1.39839983913513486607597074149364
74,1.40114277521081796187504889399459
75,1.40384880890809271447111536365128
76,1.40651892065563977762894469496825
77,1.40915405230187343775631011674822
78,1.41175510911380172665424020124431
79,1.41432296164804259976604679787037
80,1.41685844750368869443375346951728
81,1.41936237296586384119405423731625
82,1.42183551454805305059243675542844
83,1.42427862044059896420449808100026
84,1.42669241187213346683737617696126
85,1.42907758439015388071057459994096
86,1.43143480906643729702613969624799
87,1.43376473363252912953831824905686
88,1.43606798355011859699712286519763
89,1.43834516302073033917874274007660
90,1.44059685593881815448647765897490
91,1.44282362679202539505517975636973
92,1.44502602151208825775305944901608
93,1.44720456827959595441909075353330
94,1.44935977828557881593614770847670
95,1.45149214645267423071098915385790
96,1.45360215211841849601578528068446
97,1.45569025968302831853628648191587
98,1.45775691922386282617699522094118
99,1.45980256707860348098461646743220
100,1.46182762639904294263495741095926
101,1.46383250767724462777398748741199
102,1.46581760924570913578268185295614
103,1.46778331775307579792238132475463
104,1.46973000861678034210703048543746
105,1.47165804645399659179168642884219
106,1.47356778549209935322304297204188
107,1.47545956995980756334226233485725
108,1.47733373446008753107602840902716
109,1.47919060432582751121759338170612
110,1.48103049595923242997449448789752
111,1.48285371715582172006111527248885
112,1.48466056741386378958080440894783
113,1.48645133823002511314815903733784
114,1.48822631338196317594575635269144
115,1.48998576919855205290705881655210
116,1.49172997481838107356896953406630
117,1.49345919243713531013075932171841
118,1.49517367754442559515054251806088
119,1.49687367915060206159414076306747
120,1.49855944000405935571622526695318
121,1.50023119679950340600938172093370
122,1.50188918037763071832397571336646
123,1.50353361591663897432967334651277
124,1.50516472311597003068082498855377
125,1.50678271637265684998483442881923
126,1.50838780495063069737503478067918
127,1.50998019314332435860323098186796
128,1.51156008042988454837717391127223
129,1.51312766162529460443010352974630
130,1.51468312702469018094225804926315
131,1.51622666254213525081618284271313
132,1.51775844984411074910683240122665
133,1.51927866647795640832352718436928
134,1.52078748599549506036200579008715
135,1.52228507807205057148225806689624
136,1.52377160862106688921751276259004
137,1.52524723990452237215616350317747
138,1.52671213063931996154779034885909
139,1.52816643609983164777887145177447
140,1.52961030821676023879544804787302
141,1.53104389567247688006007364939808
142,1.53246734399298470236337394909045
143,1.53388079563665032364109463372030
144,1.53528439007983775131074883540525
145,1.53667826389957504388263742428866
146,1.53806255085337622184927253271054
147,1.53943738195633271489123368024842
148,1.54080288555558967440395956072576
149,1.54215918740230895227593546964467
150,1.54350641072122238677143429064928
151,1.54484467627787130974712588462946
152,1.54617410244362257434739043321899
153,1.54749480525855005284636970873088
154,1.54880689849226550385280407718116
155,1.55011049370277704484405939454606
156,1.55140570029345309636549285459144
157,1.55269262556816284447141292870074
158,1.55397137478466503948137873346822
159,1.5552420512063088038575396068150
160,1.5565047561521127867130732159861
161,1.5577595890452811610429914706486
162,1.5590066474602159247489827875904
163,1.5602460271680803587279088403215
164,1.5614778221809682785892802003649
165,1.5627021247947276801896086328371
166,1.5639190256304892945426558800354
167,1.5651286136749472843953624142699
168,1.5663309763194347713532067487514
169,1.5675261993978392556158618125663
170,1.5687143672233976714091635058561
171,1.5698955626244112725443763894566
172,1.5710698669789182147329440408029
173,1.5722373602483592369577357455358
174,1.5733981210102722853849535403110
175,1.5745522264900500647199774429530
176,1.5756997525917902233300537755539
177,1.5768407739282714326415768644103
178,1.5779753638500845151782138543504
179,1.5791035944739450661558269248675
180,1.5802255367102185150032742863145
181,1.5813412602896802753652130834070
182,1.5824508337895386789423577327177
183,1.5835543246587437424131344811546
184,1.5846517992426060089427070853241
185,1.5857433228067472723725463767372
186,1.5868289595604041526796275812112
187,1.5879087726791083231724333533047
188,1.5889828243267588257076429004771
189,1.5900511756771102049846681538577
190,1.5911138869346921129620497144110
191,1.5921710173551796059134258640306
192,1.5932226252652305162913382972721
193,1.5942687680818082032115147527701
194,1.5953095023310030223042036543080
195,1.5963448836663704472548251440852
196,1.5973749668867995348967359812202
197,1.5983998059539261091395320588543
198,1.5994194540091048256740973939364
199,1.6004339633899529512701341200367
200,1.6014433856464797978272221780299
201,1.6024477715568127875583299768174
202,1.6034471711425335254173441316754
203,1.6044416336836345334526517428056
204,1.6054312077331082619485130504412
205,1.6064159411311783426663438674194
206,1.6073958810191861028829815110829
207,1.6083710738531382108515604300073
208,1.6093415654169296740897892236305
209,1.6103074008352479333232775773447
210,1.6112686245861695476832104661273
211,1.6122252805134568301148283805840
212,1.6131774118385646601189450101737
213,1.6141250611723618517146703897672
214,1.6150682705265820523069298007109
215,1.6160070813250033786836240816815
216,1.6169415344143707445931026652110
217,1.6178716700750648389374957872214
218,1.6187975280315267270248841901392
219,1.6197191474624413478094203775097
220,1.6206365670106924152400706255345
221,1.6215498247930866260006350002399
222,1.6224589584098643709993261925007
223,1.6233640049539905114316809510005
224,1.6242650010202402787075826593856
225,1.6251619827140828547773308643524
226,1.6260549856603661707899165407351
227,1.6269440450118115669222953917148
228,1.6278291954573201235711531645397
229,1.6287104712300978160426822306807
230,1.6295879061156041789688543566608
231,1.6304615334593262697048121334019
232,1.6313313861743883396121271775381
233,1.6321974967489921987162175486906
234,1.6330598972537044197875589466655
235,1.6339186193485835529302414004369
236,1.6347736942901570494295786471528
237,1.6356251529382515149688700889899
238,1.6364730257626780232091103786834
239,1.6373173428497779252940949056246
240,1.6381581339088313086797310582167
241,1.6389954282783323866174790280231
242,1.6398292549321346742231697764742
243,1.6406596424854699818847518155288
244,1.6414866192008429142252888295563
245,1.6423102129938052477118337567992
246,1.6431304514386127054574090431780
247,1.6439473617737655109807992177440
248,1.6447609709074403014576223856643
249,1.6455713054228083689571155155694
250,1.6463783915832506137641750573864
251,1.6471822553374671091925161399736
252,1.6479829223244840757824833196966
253,1.6487804178785633364805671476019
254,1.6495747670340139090513145252536
255,1.6503659945299096151447067977968
256,1.6511541248147127907795234577131
257,1.6519391820508104889806716934567
258,1.6527211901189596186228216576290
259,1.6535001726226478223244397026448
260,1.6542761528923704790902711044533
261,1.6550491539898241447528906708979
262,1.6558191987120211549390004642307
263,1.6565863095953242404406268053250
264,1.6573505089194066051428441129985
265,1.6581118187111359910335953889862
266,1.6588702607483848973264254444475
267,1.6596258565637701662261701760195
268,1.6603786274483219683348349838333
269,1.6611285944550864568948917711900
270,1.6618757784026578142921190188473
271,1.6626201998786489740524840545590
272,1.6633618792430949971749561330931
273,1.6641008366317965451921731311497
274,1.6648370919596006582543528620696
275,1.6655706649236227130930143646360
276,1.6663015750064078384945308217059
277,1.6670298414790392715743317533758
278,1.6677554834041854087768222228716
279,1.6684785196390970540464968024788
280,1.6691989688385469570170197024035
281,1.6699168494577195300225563685892
282,1.6706321797550482401802666840167
283,1.6713449777950038889715019077846
284,1.6720552614508309358375481396160
285,1.6727630484072386730317325042263
286,1.6734683561630432764538461356405
287,1.6741712020337657917387622832030
288,1.6748716031541824573564366969745
289,1.6755695764808320127679993942714
290,1.6762651387944807241463434376769
291,1.6769583067025429685821116365430
292,1.6776490966414602616625054698466
293,1.6783375248790426341783498627734
294,1.6790236075167673948546426685937
295,1.6797073604920373662305218541512
296,1.6803887995804061792289310526452
297,1.6810679403977605581218904760040
298,1.6817447984024689126233497573580
299,1.6824193888974930399453265309096
300,1.6830917270324646874015805617417
301,1.6837618278057273869743717481494
302,1.6844297060663456547552125843883
303,1.6850953765160787283664404319180
304,1.6857588537113224198710450803475
305,1.6864201520650205126750204933477
306,1.6870792858485449656200298788914
307,1.6877362691935421062178703718269
308,1.6883911160937522914527665757741
309,1.6890438404067991254152082808122
310,1.6896944558559485689115099196223
311,1.6903429760318415359496005433102
312,1.6909894143941974902319050012196
313,1.6916337842734904344015078436054
314,1.6922760988725990963133644604121
315,1.6929163712684306319716708605186
316,1.6935546144135192207731808960438
317,1.6941908411375970916592579258515
318,1.6948250641491433314199526170391
319,1.6954572960369076167098266460950
320,1.6960875492714088710317957491499
321,1.6967158362064127656215015384645
322,1.6973421690803841786609399678122
323,1.6979665600179181268585703017714
324,1.6985890210311481465336256519925
325,1.6992095640211338861836088055992
326,1.6998282007792261477593096954648
327,1.7004449429884121974012138595470
328,1.7010598022246385348295710701749
329,1.7016727899581160962448521056009
330,1.7022839175546043224025060076736
331,1.7028931962766755304363078326832
332,1.7035006372849606506519917791057
333,1.7041062516393767068270462733420
334,1.7047100503003342240197551511712
335,1.7053120441299288788002959145963
336,1.7059122438931134499354064463065
337,1.7065106602588529417525581139493
338,1.7071073038012639390155755520468
339,1.7077021850007342577985809649828
340,1.7082953142450289836782206408797
341,1.7088867018303786108021045935196
342,1.7094763579625517789623211919580
343,1.7100642927579122464431330720505
344,1.7106505162444600923298927137797
345,1.7112350383628589675930573478138
346,1.7118178689674468697220188660945
347,1.7123990178272340062473029644562
348,1.7129784946268845588547633744787
349,1.7135563089676858929963735036995
350,1.7141324703685027553180883672253
351,1.7147069882667185464884757909748
352,1.7152798720191633517736624202406
353,1.7158511309030280137166432593906
354,1.7164207741167656613783724191260
355,1.7169888107809810614047119918785
356,1.7175552499393060006890972094959
357,1.7181201005592639396561576705627
358,1.7186833715331231801554545722676
359,1.7192450716787342930912067776278
360,1.7198052097403607436954469919396
361,1.7203637943894944593015143541594
362,1.7209208342256628212067277209466
363,1.7214763377772216762258051136320
364,1.7220303135021393919181846873301
365,1.7225827697887701918457045970201
366,1.7231337149566156485198854907690
367,1.7236831572570772260393114936441
368,1.7242311048741966611362506746871
369,1.7247775659253888151686268024408
370,1.7253225484621627102235358850261
371,1.7258660604708336026324323337985
372,1.7264081098732250503686796631152
373,1.7269487045273609410348281983056
374,1.7274878522281517889104130834964
375,1.7280255607080659926223039568745
376,1.7285618376377975096448978412893
377,1.7290966906269217368330544179840
378,1.7296301272245427643911379920252
379,1.7301621549199338430718408578855
380,1.7306927811431678213620625297251
381,1.7312220132657404280832718184510
382,1.7317498586011835185687742898636
383,1.7322763244056729590712708779792
384,1.7328014178786261130933425833628
385,1.7333251461632925508874577564697
386,1.7338475163473386407693636804890
387,1.7343685354634217715720693272299
388,1.7348882104897581430291033854874
389,1.7354065483506847987618193010681
390,1.7359235559172130909662476781047
391,1.7364392400075738937276924844802
392,1.7369536073877581733282697106051
393,1.7374666647720503890208063020319
394,1.7379784188235533053528103186697
395,1.7384888761547070728997797740509
396,1.7389980433278022282616633394769
397,1.7395059268554862432162066376714
398,1.7400125332012636311495983922423
399,1.7405178687799881765409387188834
400,1.7410219399583515874438986618185
401,1.7415247530553646198701720607226
402,1.7420263143428314192765959643169
403,1.7425266300458198998808933935773
404,1.7430257063431260548804588008287
405,1.7435235493677296630046876899466
406,1.7440201652072475004199240629726
407,1.7445155599043811746923245771258
408,1.7450097394573570839867539593659
409,1.7455027098203613625641499999276
410,1.7459944769039723270398434916424
411,1.7464850465755846834058353768161
412,1.7469744246598290773905309130822
413,1.7474626169389880672004497048486
414,1.7479496291534049424737747082173
415,1.7484354670018896733930770343239
416,1.7489201361421184195747850215927
417,1.7494036421910294472064579598406
418,1.7498859907252126176534512952673
419,1.7503671872812967260306671051906
420,1.7508472373563296716464231467262
421,1.7513261464081554124863215368790
422,1.7518039198557869853246274893807
423,1.7522805630797734275875573490889
424,1.7527560814225642146772667163360
425,1.7532304801888675921013008816468
426,1.7537037646460064092308007679020
427,1.7541759400242689393018787967296
428,1.7546470115172546993304224021289
429,1.7551169842822191823118082335049
430,1.7555858634404103637934819607169
431,1.7560536540774044864576805901284
432,1.7565203612434382722103199552842
433,1.7569859899537328996549540377134
434,1.7574505451888208448705763844846
435,1.7579140318948634091482404324520
436,1.7583764549839668346580358601983
437,1.7588378193344951693957442701200
438,1.7592981297913788634539520616259
439,1.7597573911664197779008993772721
440,1.7602156082385936774604532223629
441,1.7606727857543473668238893316355
442,1.7611289284278940342189512738013
443,1.7615840409415064499089633225982
444,1.7620381279458026389709008724471
445,1.7624911940600333589881117633360
446,1.7629432438723624069835734513153
447,1.7633942819401469247386513909135
448,1.7638443127902109206746558502733
449,1.7642933409191198487774415529833
450,1.7647413707934483969809937212875
451,1.7651884068500489880792415579175
452,1.7656344534963138344883824655829
453,1.7660795151104362899055124957546
454,1.7665235960416678867857503042997
455,1.7669667006105746834836067437630
456,1.7674088331092882180299421492006
457,1.7678499978017557642243686584738
458,1.7682901989239862859110246431805
459,1.7687294406842946033346905865880
460,1.7691677272635434138908206937472
461,1.7696050628153810169659509226983
462,1.7700414514664779558886184785373
463,1.7704768973167611807327507399316
464,1.7709114044396438928488077144315
465,1.7713449768822550398276746998118
466,1.7717776186656655915637994031339
467,1.7722093337851108779022232419424
468,1.7726401262102140034790991250383
469,1.7730699998852028164207767513365
470,1.7734989587291279554098911015568
471,1.7739270066360762421928237918957
472,1.7743541474753837171072076084696
473,1.7747803850918436684993170258082
474,1.7752057233059171599901703480091
475,1.7756301659139349783123050029381
476,1.7760537166883035154871459699156
477,1.7764763793777049183043556957807
478,1.7768981577072961810566583513539
479,1.7773190553789060708766880035445
480,1.7777390760712302802208875842064
481,1.7781582234400233573372480691198
482,1.7785765011182909834656434122785
483,1.7789939127164779767286360384570
484,1.7794104618226548424277428997360
485,1.7798261520027043465805719315957
486,1.7802409868005026974505674813615
487,1.7806549697381021838092822632448
488,1.7810681043159098663745618704724
489,1.7814803940128655504798991369355
490,1.7818918422866169029751804518901
491,1.7823024525736938475125260131096
492,1.7827122282896808262745309728473
493,1.7831211728293869030207562931655
494,1.7835292895670148013579299879620
495,1.7839365818563270705920281729157
496,1.7843430530308126234446147097987
497,1.7847487064038493310120034254109
498,1.7851535452688666200767465837514
499,1.7855575728995055699457281617857
500,1.785960792549778639137977503519
501,1.786363207454224767780973144510
502,1.786764820828067310713788817397
503,1.787165635867366269236731452727
504,1.787565655749172665154859298406
505,1.787964883631677904386976088938
506,1.788363322654363860029812885622
507,1.788760975938151522703194530678
508,1.789157846585547857929579304438
509,1.789553937680789101229443836347
510,1.789949252289986543956558759883
511,1.790343793461268040734010804442
512,1.790737564224919138470553165281
513,1.791130567593522442475277232465
514,1.791522806562095895916616825556
515,1.791914284108230346704523344275
516,1.792305003192224611967889989705
517,1.792694966757219114699146144041
518,1.793084177729329877786750518118
519,1.793472639017779657214433279323
520,1.793860353515029071265671226562
521,1.794247324096904520797452561143
522,1.794633553622727176620445086640
523,1.795019044935439470978352012194
