Eigenstate,Potential Energy
1,0.500000000064676498702155720515420949
2,0.64623093807328956644035765686620698
3,0.73633761094508245416993277117602152
4,0.79966528039724550163896935937248339
5,0.8480465797599948723010175477689969
6,0.8870660037938767910909575895190352
7,0.9197208339398268040421062297621298
8,0.9477838565762620094849956805957064
9,0.9723835707103321160042375802503209
10,0.9942802304911747111577936859657378
11,1.0140094060602291170767558991678574
12,1.0319621927224315890026713482781904
13,1.0484327205438417207361664244171194
14,1.0636476872078238902586430477452324
15,1.0777854738292441611788864109543794
16,1.090988949824922964094969426369932
17,1.103374306375144486707698458453214
18,1.115037307429859615153090434213637
19,1.126057812812666016302908519368688
20,1.136503115854746365699225927495207
21,1.146430449476566842951723276540926
22,1.155888897346618252515732239740093
23,1.164920871817941430725393137307051
24,1.173563271328549985689363401619572
25,1.181848397197357143844609777599040
26,1.189804687431763861852945461128728
27,1.197457309690234952790270298486400
28,1.204828644641339160619133096263564
29,1.211938683165701291381142199519643
30,1.218805355197826937396283016976809
31,1.225444803858821828643030796714981
32,1.231871615453128259301525453090759
33,1.238099013592753232246993807913431
34,1.244139023961916697347370399784459
35,1.250002614895853193151336987711662
36,1.255699817914021322586370395535494
37,1.261239831543890944461421372741478
38,1.266631111141059219196954243565102
39,1.271881446913597997512719897799815
40,1.276998031962714257125153309915676
41,1.281987521835055018682486926912211
42,1.286856086826995570580655621001314
43,1.291609458074763487324544706705937
44,1.296252968296156910546172404075643
45,1.300791587912045992756121418326584
46,1.305229957162710121280765630620599
47,1.309572414740586927482220938580268
48,1.313823023383422722090699393985154
49,1.317985592807151453566817858959295
50,1.32206370030370657274554924940482
51,1.32606070928350322453078357447212
52,1.32997978600398297310142870803828
53,1.33382391469316314853690617745118
54,1.33759591124957177130800297527656
55,1.34129843567647351856213598112566
56,1.34493400338821762600290592351265
57,1.34850499550933965404115579771323
58,1.35201366827225186060122696304282
59,1.35546216160660297568797388629547
60,1.35885250700236366511618898811587
61,1.36218663471912974329735252173617
62,1.36546638040583418986392068554998
63,1.36869349118781713588921360252818
64,1.37186963127189050553778914480164
65,1.37499638711449915900759116928861
66,1.37807527219323304356992169022785
67,1.38110773141768256818686457806779
68,1.38409514521187325637661531122708
69,1.38703883329720306126983827400394
70,1.38994005820187745853532349444642
71,1.39280002852023872912223652386836
72,1.39561990194308760138533048216751
73,1.39840078807804241575628686912818
74,1.40114375107716212657077716021259
75,1.40384981208742835455790977207159
76,1.40651995153823214674290536750828
77,1.40915511127870870209579410053597
78,1.41175619657659752307838238985097
79,1.41432407798925863324937108554691
80,1.41685959311653737544275804871805
81,1.41936354824432096355817612564303
82,1.42183671988686851044793958001392
83,1.42427985623530752059587525742217
84,1.42669367851906554456681924425798
85,1.42907888228644641603187952993752
86,1.43143613861004462678506151198676
87,1.43376609522223392436715623031440
88,1.43606937758554283917682927079716
89,1.43834658990234634578735449156517
90,1.44059831606795964645817697747144
91,1.44282512057089861277981675618617
92,1.44502754934378312385131102413325
93,1.44720613056809728433390350991793
94,1.44936137543577757698657374297816
95,1.45149377887037885025992306667016
96,1.45360382021036621940848675579570
97,1.45569196385689661747221682108136
98,1.45775865988828085818269878242819
99,1.45980434464316360066121993521639
100,1.46182944127431226535904971654854
101,1.46383436027477664653652174642656
102,1.46581949997805539185595508047561
103,1.46778524703379760605075839024674
104,1.46973197686046057092310920665119
105,1.47166005407625150016497189332605
106,1.47356983290959048325424742579620
107,1.47546165759025369072199672732992
108,1.47733586272227667353287297905673
109,1.47919277363962899578618294152874
110,1.48103270674560901982058296493554
111,1.48285596983684180160644735300855
112,1.48466286241271362067703206218183
113,1.48645367597102113305506836073959
114,1.48822869429056437787555639672624
115,1.48998819370137241990280389732091
116,1.49173244334320207849163476168193
117,1.49346170541291848053613920305982
118,1.49517623540132514384360700706668
119,1.49687628231997758365530295999409
120,1.49856208891848859280080085938536
121,1.50023389189279507872828451463221
122,1.50189192208483742752071712592295
123,1.50353640467407017207579411083847
124,1.50516755936120506181896456036167
125,1.50678560054455806505594634319037
126,1.50839073748935663777353106175088
127,1.50998317449034301481125898651309
128,1.51156311102798669213681337874942
129,1.51313074191860719571979337129225
130,1.51468625745868985063148871055028
131,1.51622984356366185988019445753599
132,1.51776168190138102529142865229148
133,1.51928195002057766115735518544444
134,1.52079082147447897542251693792947
135,1.52228846593982708482943383476407
136,1.52377504933149814291766536196438
137,1.52525073391291675182687398126806
138,1.52671567840244621686337634303574
139,1.52817003807593309688455053895773
140,1.52961396486556905758713975885590
141,1.53104760745522847729553686102971
142,1.53247111137243218157969436684993
143,1.53388461907707903286230123003724
144,1.53528827004707992153895831927621
145,1.53668220086102451737520587249643
146,1.53806654527800327119411997898486
147,1.53944143431469895390211890979080
148,1.54080699631986306186709962965426
149,1.54216335704627888958958354803739
150,1.54351063972031491052942949880500
151,1.54484896510916438032846792059703
152,1.54617845158586146158329234973790
153,1.54749921519216281984730937857465
154,1.54881136969937859008827112413583
155,1.55011502666723094957850374858839
156,1.55141029550081816356520149765007
157,1.55269728350575515030725287521940
158,1.55397609594156238356422144393885
159,1.5552468360733668053540579343174
160,1.5565096052219810865011574755194
161,1.5577645028124197310777056579373
162,1.5590116264209114858216079144790
163,1.5602510718204629078124536071450
164,1.5614829330250277269830649136369
165,1.5627073023323306036668696466365
166,1.5639242703653957967520166007791
167,1.5651339261128279747450085400865
168,1.5663363569678878586403361500568
169,1.5675316487664077586693910669222
170,1.5687198858235867480284040350477
171,1.5699011509697056680290825478514
172,1.5710755255847998313138585976620
173,1.5722430896323248254501613824253
174,1.5734039216918512604018583698173
175,1.5745580989908224447949043740176
176,1.5757056974354046973144155420476
177,1.5768467916404635537551790255582
178,1.5779814549586950241063605871377
179,1.5791097595089383446011188927084
180,1.5802317762037011711152151215661
181,1.5813475747759198624858101857437
182,1.5824572238049825491210898138029
183,1.5835607907420380361604977295789
184,1.5846583419346147827070265728508
185,1.5857499426505717652409879200851
186,1.5868356571014021938201462706515
187,1.5879155484649138815501598238703
188,1.5889896789073017036256206787907
189,1.5900581096046358770157791757404
190,1.5911209007637817118560648126626
191,1.5921781116427700570802740018861
192,1.5932298005706348224795127801482
193,1.5942760249667358810179668349652
194,1.5953168413595806921704459354819
195,1.5963523054051625786220469969310
196,1.5973824719048293482111620616816
197,1.5984073948226966364184729606448
198,1.5994271273026201313612371918091
199,1.6004417216847395151293417119202
200,1.6014512295216080616421863161665
201,1.6024557015939188674262011740380
202,1.6034551879258410914443712487066
203,1.6044497377999768586798305247743
204,1.6054393997719504423566022198827
205,1.6064242216846396901297868954007
206,1.6074042506820627129640888281353
207,1.6083795332229257073476610909571
208,1.6093501150938461322675002703110
209,1.6103160414222569837969871825542
210,1.6112773566890036629164152931123
211,1.6122341047406407955460985997618
212,1.6131863288014392319376063169846
213,1.6141340714851076033342269933072
214,1.6150773748062434116080996142659
215,1.6160162801915128581230245141195
216,1.6169508284905733662978750402269
217,1.6178810599867427569309077740640
218,1.6188070144074240487527229211296
219,1.6197287309342891571630652620692
220,1.6206462482132339992972567430094
221,1.6215596043641029077310897032497
222,1.6224688369901995502097341028816
223,1.6233739831875779162498341565767
224,1.6242750795541284299344973790444
225,1.6251721621984617454622833387357
226,1.6260652667485937634127506131984
227,1.6269544283604405105940350984826
228,1.6278396817261246936946451851322
229,1.6287210610821010789031014759979
230,1.6295986002171053837535009305738
231,1.6304723324799284704822883787814
232,1.6313422907870262498311898714450
233,1.6322085076299602808153473247366
234,1.6330710150826852125381249027300
235,1.6339298448086762391673219440328
236,1.6347850280679062668574369086505
237,1.6356365957236764127603884961080
238,1.6364845782493015671518655763099
239,1.6373290057346564542693658745318
240,1.6381699078925843452952090862300
241,1.6390073140651727048487813913897
242,1.6398412532298986269541659144067
243,1.6406717540056480912735397740041
244,1.6414988446586107278573101376121
245,1.6423225531080544635395543033856
246,1.6431429069319825685629699335783
247,1.6439599333726744852353187458308
248,1.6447736593421180191899742096099
249,1.6455841114273278617830618959111
250,1.6463913158955608277673175407525
251,1.6471952986994257076877078216996
252,1.6479960854818905329331121468739
253,1.6487937015811923250829039237201
254,1.6495881720356489858404096156677
255,1.6503795215883772070190702589992
256,1.6511677746919164853851654704849
257,1.6519529555127656331383630086861
258,1.6527350879358282281271190549804
259,1.6535141955687738066878841068299
260,1.6542903017463151848523547616753
261,1.6550634295344022210192329767251
262,1.6558336017343367448638406030380
263,1.6566008408868075024129610207022
264,1.6573651692758505674856195159450
265,1.6581266089327337440744434834959
266,1.6588851816397671267480928107537
267,1.6596409089340430316560016692210
268,1.6603938121111053311843628496706
269,1.6611439122285524615120726362937
270,1.6618912301095698265427143796037
271,1.6626357863464008815002378962927
272,1.6633776013037508750860779370912
273,1.6641166951221306926435352841865
274,1.6648530877211380086828601127478
275,1.6655867988026796236796842176400
276,1.6663178478541332628355870746848
277,1.6670462541514563201506599473294
278,1.6677720367622333017925031021594
279,1.6684952145486734712687455509420
280,1.6692158061705507893111391964826
281,1.6699338300880940373387245352780
282,1.6706493045648246208118605693638
283,1.6713622476703452649704649995189
284,1.6720726772830767595373604698879
285,1.6727806110929495596953257732543
286,1.6734860666040462681318879182274
287,1.6741890611372000574921647887659
288,1.6748896118325454350674742426769
289,1.6755877356520259978347357434254
290,1.6762834493818599104274243016845
291,1.6769767696349609470328256794968
292,1.6776677128533179821766322074711
293,1.6783562953103368362261154657419
294,1.6790425331131395125846345892326
295,1.6797264422048229137800363121678
296,1.6804080383666846220678271462887
297,1.6810873372204056763349218109560
298,1.6817643542301996621175788498125
299,1.6824391047049249176527737087943
300,1.6831116038001616066311013919582
301,1.6837818665202540691536025752638
302,1.6844499077203205438892121255218
303,1.6851157421082274346293484835623
304,1.6857793842465316988364874607554
305,1.6864408485543927867827228882204
306,1.6871001493094533945687438713221
307,1.6877573006496862130695130105003
308,1.6884123165752141513284136306654
309,1.6890652109501001237613546333476
310,1.6897159975041067364134993640513
311,1.6903646898344294672709762023675
312,1.6910113014074008538598381027969
313,1.6916558455601670809832040995218
314,1.6922983355023387729736325515254
315,1.6929387843176153102097713570955
316,1.6935772049653840456463294418234
317,1.6942136102822919600709730953244
318,1.6948480129837951074450035628837
319,1.6954804256656829920018274531287
320,1.6961108608055778784767226312768
321,1.6967393307644129545182889071700
322,1.6973658477878854598324552038414
323,1.6979904240078882962174929768674
324,1.6986130714439190957534964588602
325,1.6992338020044685092516391883676
326,1.6998526274883859523174150105033
327,1.7004695595862256299114197662704
328,1.7010846098815700287350547825206
329,1.7016977898523358524324667812247
330,1.7023091108720588314108920302659
331,1.7029185842111588459944580558450
332,1.7035262210381864242751684705631
333,1.7041320324210509933426201611866
334,1.7047360293282290680432981447052
335,1.7053382226299566923317177165231
336,1.7059386230994021913989925311428
337,1.7065372414138221069590981910167
338,1.7071340881557013746832825489266
339,1.7077291738138738084301792552498
340,1.7083225087846289827560363496562
341,1.7089141033728012274278387956071
342,1.7095039677928432312399758985877
343,1.7100921121698838930738472122066
344,1.7106785465407704140630957836087
345,1.7112632808550964503584893272238
346,1.7118463249762138014469158139641
347,1.7124276886822311995483241580774
348,1.7130073816669970119831779477723
349,1.7135854135410694016053581689566
350,1.7141617938326714878166082784629
351,1.7147365319886335959439549751889
352,1.7153096373753222775273844286857
353,1.7158811192795553860820548134183
354,1.7164509869095046230007808167211
355,1.7170192493955859190736014766033
356,1.7175859157913358616120255457649
357,1.7181509950742774064227222263735
358,1.7187144961467741188444686003606
359,1.7192764278368686892036825885882
360,1.7198367988991146608281665803168
361,1.7203956180153931157129604950877
362,1.7209528937957207996686675412324
363,1.7215086347790442827992667570037
364,1.7220628494340251795438372680745
365,1.7226155461598146648922085504688
366,1.7231667332868161646948002772891
367,1.7237164190774391123289496685198
368,1.7242646117268405607134184391516
369,1.7248113193636592824791706453016
370,1.7253565500507380717425717645620
371,1.7259003117858371010655281807185
372,1.7264426125023372903636973522053
373,1.7269834600699336547639616254228
374,1.7275228622953229401849877248996
375,1.7280608269228762385066367664131
376,1.7285973616353080388500273857749
377,1.7291324740543335044885616648930
378,1.7296661717413171431162162331939
379,1.7301984621979147105997146412745
380,1.7307293528667051053047150537947
381,1.7312588511318151287708928680578
382,1.7317869643195342312434523156106
383,1.7323136996989239170738625351538
384,1.7328390644824167740444115156356
385,1.7333630658264087482332383716614
386,1.7338857108318453234410752590001
387,1.7344070065447973548908731648786
388,1.7349269599570304943819999123839
389,1.7354455780065688819730429165975
390,1.7359628675782502936953968753191
391,1.7364788355042730626420910482291
392,1.7369934885647383822196013713288
393,1.7375068334881854654702421423248
394,1.7380188769521181419843417408074
395,1.7385296255835257497165663877444
396,1.7390390859593979730131117620363
397,1.7395472646072332572126333675118
398,1.7400541680055408084190475604193
399,1.7405598025843347447040647392369
400,1.7410641747256246991824406068310
401,1.7415672907638989243690668626057
402,1.7420691569866006435335548130274
403,1.7425697796346004703052382461925
404,1.7430691649026627901368775166965
405,1.7435673189399035696093217382979
406,1.7440642478502457031504034184264
407,1.7445599576928690144449850409552
408,1.7450544544826524162966827250703
409,1.7455477441906110905948015597715
410,1.7460398327443312034575919537019
411,1.7465307260283964161695613623132
412,1.7470204298848097751189523918983
413,1.7475089501134120604241809845863
414,1.7479962924722930177342926540497
415,1.7484824626781997578240890462813
416,1.7489674664069387542828194280693
417,1.7494513092937742884706719261273
418,1.7499339969338205056743287850830
419,1.7504155348824313616892402576783
420,1.7508959286555834424784505975614
421,1.7513751837302556098336568035955
422,1.7518533055448047554059525211031
423,1.7523302994993355000177721633287
424,1.7528061709560674527803914878277
425,1.7532809252396964101809185488981
426,1.7537545676377531028121901704609
427,1.7542271034009569752186798039106
428,1.7546985377435650134120651352852
429,1.7551688758437195333243391406825
430,1.7556381228437877932095576431347
431,1.7561062838507009345663155170046
432,1.7565733639362894020406057489573
433,1.7570393681376101811670442824007
434,1.7575043014572769528688710370190
435,1.7579681688637809893957343172526
436,1.7584309752918106937169542332845
437,1.7588927256425679447911503502023
438,1.7593534247840802318478064420233
439,1.7598130775515092600835665682979
440,1.7602716887474571001079257311897
441,1.7607292631422670421365533755161
442,1.7611858054743227197535653196496
443,1.7616413204503451521355499245006
444,1.7620958127456823253320677894420
445,1.7625492870046006445198691221059
446,1.7630017478405692828571323366728
447,1.7634531998365445974212796514372
448,1.7639036475452478317709736851693
449,1.7643530954894439470108712253029
450,1.7648015481622137352012519606418
451,1.7652490100272267196464975841171
452,1.7656954855190076848777919755708
453,1.7661409790432025809039979021086
454,1.7665854949768401922229491117903
455,1.7670290376685931970346442952751
456,1.7674716114390339152711973507764
457,1.7679132205808894427970209859553
458,1.7683538693592925693666118630391
459,1.7687935620120309959915440244272
460,1.7692323027497944958308057119835
461,1.7696700957564178701394963987301
462,1.7701069451891229141826742480836
463,1.7705428551787579987850985318094
464,1.7709778298300334303677882321223
465,1.7714118732217565601985939678537
466,1.7718449894070637755966450281196
467,1.7722771824136486556957716930038
468,1.7727084562439913095487826885955
469,1.7731388148755813754655339956684
470,1.7735682622611422083696987072275
471,1.7739968023288505245877196276508
472,1.7744244389825558040378529281712
473,1.7748511761019948031424934099848
474,1.7752770175430086849340716321420
475,1.7757019671377516916511307169597
476,1.7761260286949038762300022750330
477,1.7765492059998782283592755609733
478,1.7769715028150268738216221775208
479,1.7773929228798452393070676534663
480,1.7778134699111745801562800166997
481,1.7782331476034014248575421497452
482,1.7786519596286575081025033807995
483,1.7790699096370155755010592093151
484,1.7794870012566838828848725191324
485,1.7799032380942008703387895159240
486,1.7803186237346245990930663037887
487,1.7807331617417238034915952448774
488,1.7811468556581651580374993923531
489,1.7815597090056999912297372965516
490,1.7819717252853483129341253598606
491,1.7823829079775822932916262309236
492,1.7827932605425077851695540265271
493,1.7832027864200438690762166054854
494,1.7836114890301015186083942696103
495,1.7840193717727595830501471126614
496,1.7844264380284413357901696218710
497,1.7848326911580872784279808311733
498,1.7852381345033281502993484061904
499,1.7856427713866556453298185526176
500,1.786046605111592971411210049523
501,1.786449638962861003156498165617
502,1.786851876206547488163622419265
503,1.787253320090270780002304152593
504,1.787653973843345946990509920519
505,1.788053840676946109589965352074
506,1.788452923784264742037944385615
507,1.788851226340676791905646212183
508,1.789248751503898263382178048088
509,1.789645502414142501166859529393
510,1.790041482194279234371383486324
511,1.790436693949989617850243904431
512,1.790831140769921177676543420172
513,1.791224825725841283213812623791
514,1.791617751872789829149434761473
515,1.792009922249231508903373297396
516,1.792401339877205897111447941292
517,1.792792007762476423511987123217
518,1.793181928894680031427575361817
519,1.793571106247474310823795294785
520,1.793959542778684971219206115291
521,1.794347241430450458201146188318
522,1.794734205129367998516962096506
523,1.795120436786637519929174601209
