Eigenstate,Potential Energy
1,0.500000000045197066837352594385226380
2,0.64623093794613757852638005429922967
3,0.73633761057158188802126967827234750
4,0.79966527961928115798912129049921874
5,0.8480465784123897037045112229177388
6,0.8870660017085555229724860594618255
7,0.9197208309473490757750245859177890
8,0.9477838525064608715469289666146938
9,0.9723835653926101176651914865975785
10,0.9942802237546534278335441964712287
11,1.0140093977338296828423610901723629
12,1.0319621826349200694671524316940164
13,1.0484327085238553439611317667290618
14,1.0636476730838862605256674014950108
15,1.0777854574297738253795278779606253
16,1.090988930978237801610847947115219
17,1.103374284909463381551831769014303
18,1.115037283173302304539060894374063
19,1.126057785593251682032033783753045
20,1.136503085500391337672487314644162
21,1.146430415815081661869414266767548
22,1.155888860205704260872869523695318
23,1.164920831025187010247997200399402
24,1.173563226711426525285195333246372
25,1.181848348583214798896668225880455
26,1.189804634647827149529930719629841
27,1.197457252563598216631551546593397
28,1.204828582998961929457858409398158
29,1.211938616834403551704327879393892
30,1.218805284004284333841495247043872
31,1.225444727629560804047229085281021
32,1.231871534014521143238465280027428
33,1.238098926771013285098377079612332
34,1.244138931583093115496165780533299
35,1.250002516785826079753307336866552
36,1.255699713898496627488099032366459
37,1.261239721448395376131532291320794
38,1.266630994790935130978611840343326
39,1.271881324133998250057501441638059
40,1.276997902578597058506686799037794
41,1.281987385671178743394385391016416
42,1.286855943707913558383032589811328
43,1.291609307824818822705830215912755
44,1.296252810739477183403667925462498
45,1.300791422872538040762946562021871
46,1.305229784464054754293416214722053
47,1.309572234206233634247750588272401
48,1.313822834836584359432151050985967
49,1.317985396070798918157445107124830
50,1.32206349520056345552439052259786
51,1.32606049563604044776250010499501
52,1.32997956363441341004071919062895
53,1.33382368342343622562107033647423
54,1.33759567090136805276928973039251
55,1.34129818607119927332381556884601
56,1.34493374434699937669869893088398
57,1.34850472685301870797644692311920
58,1.35201338982137882245554217257254
59,1.35546187318143224174173871395144
60,1.35885220842284789876979828882476
61,1.36218632580491433163749231027020
62,1.36546606097625168102003209568714
63,1.36869316106188165691233297943587
64,1.37186929026829216052427206856222
65,1.37499603505159840718124995749337
66,1.37807490888905505702805102899571
67,1.38110735668991156900812815494790
68,1.38409475887784683278180306184174
69,1.38703843517390646252004090244065
70,1.38993964810593786824615382897934
71,1.39279960626791951666691554775657
72,1.39561946735028255105426514281254
73,1.39840034096026993333557843423176
74,1.40114329124955942299737616453317
75,1.40384933936474560630442934274098
76,1.40651946573482663258075106311197
77,1.40915461220853891588092999961839
78,1.41175568405321726219992234155258
79,1.41432355182581106237714471917131
80,1.41685905312574906520608862725229
81,1.41936299423849590378422967630476
82,1.42183615167788209758420619836030
83,1.42427927363460051893765746989743
84,1.42669308133763802090688282122568
85,1.42907827033485164734578326240156
86,1.43143551169838298056210511302728
87,1.43376545316014671119322747054711
88,1.43606872018220613717187242090354
89,1.43834591696646479649664574026294
90,1.44059762740776022179298511088147
91,1.44282441599412435259943425185787
92,1.44502682865768684377490427697102
93,1.44720539357943525336702877570422
94,1.44936062195080316454354961713867
95,1.45149300869483614215968044175664
96,1.45360303314948360241784651172944
97,1.45569115971538033196684191181678
98,1.45775783847030851849233693981717
99,1.45980350575237768266198480502866
100,1.46182858471381356087191729858355
101,1.46383348584711768408718991976124
102,1.46581860748523382334755764566163
103,1.46778433627724955889702296853535
104,1.46973104764105396518546291378090
105,1.47165910619427933023332534479303
106,1.47356886616476406360706308763181
107,1.47546067178169586529736909991571
108,1.47733485764851498823790110313601
109,1.47919174909858883366818418622893
110,1.48103166253460669841913140290813
111,1.48285490575257763200124149106033
112,1.48466177825126492774208367719566
113,1.48645257152783523642548913314398
114,1.48822756936045153312874696799357
115,1.48998704807849871945131407800970
116,1.49173127682108231168055581862919
117,1.49346051778440895243317801744181
118,1.49517502645861645220542587553942
119,1.49687505185458735354896071365233
120,1.49856083672125416835435762854113
121,1.50023261775386617147977395854271
122,1.50189062579366872082979709026643
123,1.50353508601941388105744177965115
124,1.50516621813110344825351239974933
125,1.50678423652633590672464542545728
126,1.50838935046961365166368845501284
127,1.50998176425494623362971143672992
128,1.51156167736206279356517682341078
129,1.51312928460653478383957702320598
130,1.51468477628409168894165674972791
131,1.51622833830939705532432885732469
132,1.51776015234953716270577337434088
133,1.51928039595246288754568254688714
134,1.52078924267061403345766951583972
135,1.52228686217993729497569759337785
136,1.52377342039450533356227564791755
137,1.52524907957693113680276313476237
138,1.52671399844475821973930459422017
139,1.52816833227300512139251699872706
140,1.52961223299302720355073480198434
141,1.53104584928785420141663340921264
142,1.53246932668415390243420038162015
143,1.53388280764096367944947005771692
144,1.53528643163532442472190450410981
145,1.53668033524494724354368276200034
146,1.53806465222803539747379154129424
147,1.53943951360037578422761623306915
148,1.54080504770981528322930133947142
149,1.54216138030822376776019234044930
150,1.54350863462104742455918626882586
151,1.54484693141454829510751457763768
152,1.54617638906082033774532997363735
153,1.54749712360067096029128085654267
154,1.54880924880445192238402208793956
155,1.55011287623091784351508619948133
156,1.55140811528419018309240286267426
157,1.55269507326889773911363974435105
158,1.55397385544356548352631412751116
159,1.5552445650723154070835828678070
160,1.5565073034749457112088410562505
161,1.5577621700754468429637557730948
162,1.5590092624490138341946388505496
163,1.5602486763676097981299292533182
164,1.5614805058441352199977355025210
165,1.5627048431752516418545974459444
166,1.5639217789829102571878229977686
167,1.5651314022546326475847080495091
168,1.5663338003825863503561412341046
169,1.5675290592015003191785332426705
170,1.5687172630254600208442117513361
171,1.5698984946836223625545011859401
172,1.5710728355548883163876075274058
173,1.5722403656015686432458821900471
174,1.5734011634020785597705479046501
175,1.5745553061826953331308754075545
176,1.5757028698484085100147013032141
177,1.5768439290128960403317465086643
178,1.5779785570276554500001964979488
179,1.5791068260103165077362832047573
180,1.5802288068721663322201510437581
181,1.5813445693449095881981882246771
182,1.5824541820066914668813928664849
183,1.5835577123074064998879692322939
184,1.5846552265933174482403047413179
185,1.5857467901310060745140614295169
186,1.5868324671306767667323281673275
187,1.5879123207688368144769306319013
188,1.5889864132103687735049378993598
189,1.5900548056300186499322021373959
190,1.5911175582333155550323552588188
191,1.5921747302769420531737520280661
192,1.5932263800885715850672137834508
193,1.5942725650861912701420139336293
194,1.5953133417969234288014196243367
195,1.5963487658753637568849231163075
196,1.5973788921214498442048731281166
197,1.5984037744978744124459509246308
198,1.5994234661470574343736129334047
199,1.6004380194076899681724726512975
200,1.6014474858308636470807288971322
201,1.6024519161957968007047195232977
202,1.6034513605251705841307387391024
203,1.6044458681000857695210459113961
204,1.6054354874746518150616551746766
205,1.6064202664902181765791293741349
206,1.6074002522892608805292419379865
207,1.6083754913289302289887351794103
208,1.6093460293942738580603649620096
209,1.6103119116111408925251120165383
210,1.6112731824587786923461637282395
211,1.6122298857821295499873475092356
212,1.6131820648038375656740261249516
213,1.6141297621359700784908246882470
214,1.6150730197914686290057205767275
215,1.6160118791953286596516097534746
216,1.6169463811955219073222915152839
217,1.6178765660736654472246686067366
218,1.6188024735554463604365325258341
219,1.6197241428208052981058418350480
220,1.6206416125138914504181531903011
221,1.6215549207527868226221951723615
222,1.6224641051390170154780617431171
223,1.6233692027668420709588314360639
224,1.6242702502323424425032580210078
225,1.6251672836423026463614341056418
226,1.6260603386228961319738378467202
227,1.6269494503281800142293541587898
228,1.6278346534484014778013272453977
229,1.6287159822181230057043407758833
230,1.6295934704241711183076809921141
231,1.6304671514134104120676472419855
232,1.6313370581003533068910291124428
233,1.6322032229746004876257296451145
234,1.6330656781081281857361143820359
235,1.6339244551624154722543021441486
236,1.6347795853954212607673301743960
237,1.6356310996684146405582646638376
238,1.6364790284526602709032115429765
239,1.6373234018359642720951040204369
240,1.6381642495290827666014624022551
241,1.6390016008719973516946719336319
242,1.6398354848400603594939939779497
243,1.6406659300500139351827339925728
244,1.6414929647658846216244995674914
245,1.6423166169047578234791101239197
246,1.6431369140424346693739739090840
247,1.6439538834189726539047742653790
248,1.6447675519441176400084120970235
249,1.6455779462026221902118890520272
250,1.6463850924594606108663979009905
251,1.6471890166649386087819672222948
252,1.6479897444597003581660744078701
253,1.6487873011796380494729009271053
254,1.6495817118607035764243801891146
255,1.6503730012436262406359378604976
256,1.6511611937785365586179106832685
257,1.6519463136295025619009013248235
258,1.6527283846789750343479268253568
259,1.6535074305321484895081509445127
260,1.6542834745212382737212962012446
261,1.6550565397096741080340524935040
262,1.6558266488962147936652443408882
263,1.6565938246189829309113610355908
264,1.6573580891594251016552226817765
265,1.6581194645461960400150612735376
266,1.6588779725589689581764128363984
267,1.6596336347321752399486407194530
268,1.6603864723586735350556127633916
269,1.6611365064933525233693267091131
270,1.6618837579566630725216253426225
271,1.6626282473380890721401252999141
272,1.6633699949995509235638832177071
273,1.6641090210787491274424711060496
274,1.6648453454924451775274497759005
275,1.6655789879396836355256787336986
276,1.6663099679049536646579937150962
277,1.6670383046612975052271968078666
278,1.6677640172733576461343571186779
279,1.6684871246003741948025443981037
280,1.6692076452991245383689026412798
281,1.6699255978268131849633392520912
282,1.6706410004439092813375918132691
283,1.6713538712169350192858923200685
284,1.6720642280212020873887388395277
285,1.6727720885435029753363094610681
286,1.6734774702847531555719265319229
287,1.6741803905625892015439418664901
288,1.6748808665139192443379099595541
289,1.6755789150974304157499469653049
290,1.6762745530960540103252888831490
291,1.6769677971193862072996719087222
292,1.6776586636060672373470510342135
293,1.6783471688261228999053530234383
294,1.6790333288832634679934402063733
295,1.6797171597171420676606912306812
296,1.6803986771055801176284222506992
297,1.6810778966667497608454294445149
298,1.6817548338613226047079786938112
299,1.6824295039945815727977281683687
300,1.6831019222184976187401467490529
301,1.6837721035337717136177151035706
302,1.6844400627918441998669987315901
303,1.6851058146968686847861839002062
304,1.6857693738076540511790011325433
305,1.6864307545395760136598077588307
306,1.6870899711664574838363060964780
307,1.6877470378224149263422983339936
308,1.6884019685036781841664411198486
309,1.6890547770703798625617869659751
310,1.6897054772483146067003443817476
311,1.6903540826306718679955045858826
312,1.6910006066797396722437021404337
313,1.6916450627285807823538827273921
314,1.6922874639826830599584487241035
315,1.6929278235215833455691291172680
316,1.6935661543004662329404322976993
317,1.6942024691517352762663054949498
318,1.6948367807865619814767117710363
319,1.6954691017964097232178544202521
320,1.6960994446545325887955788140725
321,1.6967278217174530680396214470218
322,1.6973542452264147035414239833779
323,1.6979787273088132153284702234566
324,1.6986012799796050771374088344270
325,1.6992219151426953062915940081324
326,1.6998406445923027044327246119579
327,1.7004574800143053698872331635639
328,1.7010724329875636708867257625432
329,1.7016855149852256545260982953557
330,1.7022967373760113231509084938884
331,1.7029061114254772167766361111591
332,1.7035136482972623627895275148645
333,1.7041193590543159714937991384980
334,1.7047232546601050615376690680188
335,1.7053253459798063301605519188748
336,1.7059256437814783263230283532777
337,1.7065241587372167989760387810072
338,1.7071209014242942793323330301482
339,1.7077158823262799616577684589694
340,1.7083091118341459739352417438619
341,1.7089006002473557519907347997417
342,1.7094903577749370142435953229865
343,1.7100783945365389748829508503239
344,1.7106647205634737891912888436121
345,1.7112493457997440503634016411575
346,1.7118322801030538126298367172401
347,1.7124135332458067060588209755549
348,1.7129931149160879547758933120413
349,1.7135710347186338435423949922272
350,1.7141473021757861750499661909152
351,1.7147219267284338055516283737082
352,1.7152949177369409412137166907523
353,1.7158662844820614795843827905317
354,1.7164360361658408106758129297171
355,1.7170041819125054429631326075921
356,1.7175707307693386641105371035353
357,1.7181356917075454754908259736265
358,1.7186990736231060445279076716734
359,1.7192608853376134200314898401057
360,1.7198211355991044484730937288536
361,1.7203798330828756361039799916681
362,1.7209369863922904385475614156313
363,1.7214926040595725735127436121661
364,1.7220466945465903806560163778584
365,1.7225992662456304649955835800106
366,1.7231503274801595015826116782757
367,1.7236998865055770934778260689905
368,1.7242479515099564718007053757523
369,1.7247945306147776704359088727232
370,1.7253396318756488886128342458380
371,1.7258832632830188947088728136124
372,1.7264254327628794277977107620691
373,1.7269661481774575637023599262277
374,1.7275054173259023540760745230007
375,1.7280432479449564301264910354706
376,1.7285796477096240272448189525234
377,1.7291146242338272197984140959388
378,1.7296481850710535335449880871932
379,1.7301803377149967755200783837822
380,1.7307110896001878382123195579756
381,1.7312404481026183535122727373025
382,1.7317684205403543146571856338075
383,1.7322950141741443408856320029192
384,1.7328202362080175485548637524432
385,1.7333440937898746500321674029417
386,1.7338665940120729390646458363975
387,1.7343877439120009120210110443878
388,1.7349075504726464618587744092349
389,1.7354260206231593195573829099418
390,1.7359431612394049321814322075121
391,1.7364589791445100945693928093664
392,1.7369734811094039430834853142780
393,1.7374866738533517849644579017081
394,1.7379985640444803444470276985873
395,1.7385091583002972825675944599409
396,1.7390184631882046415929981346265
397,1.7395264852260058440389581506048
398,1.7400332308824062544749045123974
399,1.7405387065775058699697367392882
400,1.7410429186832884392011659117442
401,1.7415458735241030592126683091041
402,1.7420475773771389951026789522429
403,1.7425480364728965434528365918242
404,1.7430472569956518326544150452918
405,1.7435452450839130256489999639358
406,1.7440420068308740341897875431788
407,1.7445375482848628614166493262707
408,1.7450318754497820760136573667890
409,1.7455249942855442791017664875290
410,1.7460169107085050784238694164738
411,1.7465076305918878299172073591810
412,1.7469971597662037293454152469503
413,1.7474855040196683331289216406614
414,1.7479726690986109323061770401977
415,1.7484586607078810636714906744243
416,1.7489434845112485878104479355240
417,1.7494271461318001826074264403813
418,1.7499096511523294155535825888842
419,1.7503910051157246734589585519742
420,1.7508712135253499315841327107635
421,1.7513502818454223144711637210123
422,1.7518282155013857301747447353059
423,1.7523050198802784141334886591675
424,1.7527807003310979965060788417830
425,1.7532552621651604724369839320405
426,1.7537287106564566821960230828597
427,1.7542010510420037859292144637710
428,1.7546722885221917468167485908816
429,1.7551424282611287351361565192832
430,1.7556114753869783154500374348039
431,1.7560794349922959206843867196402
432,1.7565463121343617627306701818300
433,1.7570121118355055175853530497133
434,1.7574768390834338830851571788737
435,1.7579404988315488330331130060216
436,1.7584030959992644688318733645123
437,1.7588646354723206301184180433846
438,1.7593251221030922465949993565211
439,1.7597845607108951124897049775595
440,1.7602429560822891549936724593723
441,1.7607003129713763566638882565635
442,1.7611566361000968955750297070988
443,1.7616119301585231510554235791412
444,1.7620661998051461945207532752157
445,1.7625194496671640962108952612307
446,1.7629716843407630723241662162502
447,1.7634229083913986418691772528387
448,1.7638731263540700115898709590316
449,1.7643223427335955296214904277203
450,1.7647705620048813604784904748038
451,1.7652177886131908846311924666616
452,1.7656640269744076641805046903995
453,1.7661092814752977178741019232876
454,1.7665535564737674945795386440790
455,1.7669968562991211692633195500542
456,1.7674391852523125586493983528243
457,1.7678805476061963524459915783859
458,1.7683209476057750562206306584839
459,1.7687603894684441600344173518683
460,1.7691988773842351753707262485736
461,1.7696364155160543902761463047049
462,1.7700730079999205559634428177217
463,1.7705086589452001088483655573398
464,1.7709433724348380891329509528110
465,1.7713771525255887248806324360524
466,1.7718100032482428124946758106620
467,1.7722419286078511743328858200930
468,1.7726729325839492093237431056481
469,1.7731030191307750135080400773472
470,1.7735321921774885952758678615402
471,1.7739604556283864526452155542130
472,1.7743878133631158104323375424132
473,1.7748142692368838684631748555902
474,1.7752398270806695650684405498356
475,1.7756644907014267788755478571828
476,1.7760882638822914829597919164000
477,1.7765111503827831846187794254640
478,1.7769331539390053270294334035740
479,1.7773542782638435424452818131302
480,1.7777745270471621517989461491828
481,1.7781939039559974618697810629435
482,1.7786124126347514290965404203595
483,1.7790300567053810703294588885462
484,1.7794468397675864405808142593785
485,1.7798627653989986549596192683710
486,1.7802778371553625398969412310416
487,1.7806920585707207627691230613957
488,1.7811054331575940367305775416086
489,1.7815179644071606291911370485250
490,1.7819296557894330373232400616758
491,1.7823405107534339651458759515776
492,1.7827505327273701906441327592330
493,1.7831597251188042982084315436198
494,1.7835680913148253707172855898772
495,1.7839756346822168340452139495732
496,1.7843823585676246987139847028754
497,1.7847882662977218845073007381463
498,1.7851933611793725736094650246403
499,1.7855976464997940899030855753327
500,1.786001125526718435219816453684
501,1.786403801508549228880261581966
502,1.786805677674521506010386930223
503,1.787206757234855843075102833899
504,1.787607043380914654782323964729
505,1.788006539285353510150494283008
506,1.788405248102273198159218636948
507,1.788803172967370391347378575619
508,1.789200316998086547666780700490
509,1.789596683293753281834808754143
510,1.789992274935740259784173952022
511,1.790387094987598847659620849438
512,1.790781146495205415936946787282
513,1.791174432486902914796931371010
514,1.791566955973641397623579148489
515,1.791958719949117867339535119766
516,1.792349727389913656407651358864
517,1.792739981255630415727708540453
518,1.793129484489026498333366374136
519,1.793518240016150520357550898874
520,1.793906250746474956811952133736
521,1.794293519573026567969629762307
522,1.794680049372517933121367645090
523,1.795065843005476529457790072101
