Eigenstate,Potential Energy
1,0.500000000076355035564151555614636068
2,0.64623093814952132823566637058180312
3,0.73633761116900874192773866568480717
4,0.79966528086366306625405635116243615
5,0.8480465805679358615795110524611819
6,0.8870660050441130762689619079874379
7,0.9197208357339513630351204734655532
8,0.9477838590163066781715654575453728
9,0.9723835738985906254906253151298362
10,0.9942802345301135932689179155546427
11,1.0140094110524399751233083609340533
12,1.0319621987706044485850359773235718
13,1.0484327277507498575226347220741351
14,1.0636476956763152637128085608138812
15,1.0777854836622368344759010551207350
16,1.090988961125403028924248143683340
17,1.103374319246165618445781698511089
18,1.115037321974543722390458537946449
19,1.126057829134204645222176269788093
20,1.136503134056402637960907303276714
21,1.146430469661677779033592430254798
22,1.155888919618597379188912256193784
23,1.164920896280281601904777474983059
24,1.173563298084826366323424782229088
25,1.181848426351230320446392261608961
26,1.189804719086983052959349510362765
27,1.197457343950641299481791649670969
28,1.204828681610869082145103453602648
29,1.211938722948389894511977641898035
30,1.218805397897811470762096814613456
31,1.225444849580345175287217209827981
32,1.231871664300542462164642198635621
33,1.238099065670523048430474282158212
34,1.244139079374623177880366848975559
35,1.250002673748197285663274955137457
36,1.255699880310827494820422043730668
37,1.261239897590110826985134964985333
38,1.266631180941775266001602546032042
39,1.271881520574027163461927225915789
40,1.276998109588211691430653391250754
41,1.281987603531117773761476662812795
42,1.286856172699266325793712137587884
43,1.291609548229034287211968155392714
44,1.296253062838372917279014387504933
45,1.300791686948309252600021033872670
46,1.305230060799283344939256085008654
47,1.309572523083897284243748249034939
48,1.313823136540065647752314156688177
49,1.317985710883894472148882943014978
50,1.32206382340749313204708676787015
51,1.32606083752145654560544494318600
52,1.32997991948340991376017380850270
53,1.33382405352155808100612219276632
54,1.33759605553462047419152411550497
55,1.34129858552605708327287686930700
56,1.34493415891041637784498185611309
57,1.34850515681243708813681893560938
58,1.35201383546473859286886747143710
59,1.35546233479718070908807652540702
60,1.35885268629994917139170815839731
61,1.36218682023285886044368378713724
62,1.36546657224506583557143412154845
63,1.36869368946213733720853476979872
64,1.37186983609111644502460717800447
65,1.37499659858868323760987249692274
66,1.37807549043266696052607256558502
67,1.38110795653290141820867921649293
68,1.38409537731365964439582685915162
69,1.38703907249659123503179728006541
70,1.38994030461015745932777602570845
71,1.39280028224896056093147587387099
72,1.39562016310406541877601903778933
73,1.39840105678335873077527028783591
74,1.40114402743917203497895378021974
75,1.40385009621876378169799981886034
76,1.40652024355180611335448966031220
77,1.40915541128771961039261688598214
78,1.41175650469453346340637433157284
79,1.41432439432990171164727441993144
80,1.41685991779396806243061128651909
81,1.41936388137292246448232100582401
82,1.42183706158133115771453155259394
83,1.42428020661063318812820092628756
84,1.42669403769057208482504218495524
85,1.42907925036977211993719498316621
86,1.43143651572115270689348989249460
87,1.43376648147741702164160703854148
88,1.43606977310142755370936023529098
89,1.43834699479589779182693800237033
90,1.44059873045648603210262042272131
91,1.44282554457205584469397813004280
92,1.44502798307557943737705183476753
93,1.44720657414889789936081230784575
94,1.44936182898430937995589097940502
95,1.45149424250573510267763678243571
96,1.45360429405201129324718982404221
97,1.45569244802467075784484440690807
98,1.45775915450240497367496486862389
99,1.45980484982424408171321069625863
100,1.46182995714334583109023228283730
101,1.46383488695315522041209287785055
102,1.46582003758757100659638070624289
103,1.46778579569664733819016902989398
104,1.46973253669925150542620480967966
105,1.47166062521400572551597964813323
106,1.47357041546975011743554937278374
107,1.47546225169668593850421867158255
108,1.47733646849927891550215233428861
109,1.47919339121193390953886068199029
110,1.48103333623838973375940294930687
111,1.48285661137571708177709355658352
112,1.48466351612375309108789697670513
113,1.48645434198075052992780238969006
114,1.48822937272597083827836041226073
115,1.48998888468990980522293440214382
116,1.49173314701279633320841212993152
117,1.49346242189197302676031094248430
118,1.49517696481872631209373601317815
119,1.49687702480510008034671316368330
120,1.49856284460120100492753445562002
121,1.50023466090346541622352949023663
122,1.50189270455433870378614700562332
123,1.50353720073378602317549610939620
124,1.50516836914303540483877024580586
125,1.50678642418092479613437378808159
126,1.50839157511320937031583719461604
127,1.50998402623516485840353231471554
128,1.51156397702780007268262931297716
129,1.51313162230797971732758284245991
130,1.51468715237274019978634564447503
131,1.51623075313806575243981152515583
132,1.51776260627237719685161245883446
133,1.51928288932497390133842787348665
134,1.52079177584965820663415427969361
135,1.52228943552375348607756273539853
136,1.52377603426272331922318058300413
137,1.52525173433058594983228726648436
138,1.52671669444630458721003294781762
139,1.52817106988633200394946549538577
140,1.52961501258347243717503333962645
141,1.53104867122221924288855323108286
142,1.53247219133071867975383879451682
143,1.53388571536950154848682273276058
144,1.53528938281711723338170880123396
145,1.53668333025280050474412894817209
146,1.53806769143629357225240518760375
147,1.53944259738493767630169476964290
148,1.54080817644814954635272112032365
149,1.54216455437938452723319116579711
150,1.54351185440569001426221824726663
151,1.54485019729494511144589771027023
152,1.54617970142087681190614188433281
153,1.54750048282594165022973747797805
154,1.54881265528215672597229124865768
155,1.55011633034995833430226535482343
156,1.55141161743516607014093710401320
157,1.55269862384412345239336785144008
158,1.55397745483708688636446209894372
159,1.5552482136799266371855452290285
160,1.5565110016942061517820553269664
161,1.5577659183056982254941092294192
162,1.5590130610913974744426523406644
163,1.5602525258250839669317231282721
164,1.5614844065214926504740363804052
165,1.5627087954791371746496201138039
166,1.5639257833218386253780729705434
167,1.5651354590390064029172386364583
168,1.5663379100247139324948386661608
169,1.5675332221156142696562893231424
170,1.5687214796277353434391521569204
171,1.5699027653921950318280301539886
172,1.5710771607898739361427682475613
173,1.5722447457850812566849657003138
174,1.5734055989582496131520916606127
175,1.5745597975376927947473013903327
176,1.5757074174304561463336511855767
177,1.5768485332522928511658673211560
178,1.5779832183567952645925562824724
179,1.5791115448637077436711002068621
180,1.5802335836864519190914994923357
181,1.5813494045588870579923850418198
182,1.5824590760613332130527089502331
183,1.5835626656458802071307417913891
184,1.5846602396610066949852758321962
185,1.5857518633755311102016224042308
186,1.5868376010019154659391895883844
187,1.5879175157189458099996440017847
188,1.5889916696938047705284251726473
189,1.5900601241035599234379053125107
190,1.5911229391560836326270743998984
191,1.5921801741104235855475633126348
192,1.5932318872966404063156357593421
193,1.5942781361351306502155647273517
194,1.5953189771554485203737527638850
195,1.5963544660146442389598366500917
196,1.5973846575151327648104664691687
197,1.5984096056221072327946884575923
198,1.5994293634805112768960794668813
199,1.6004439834315830708638677701188
200,1.6014535170289850266287124871601
201,1.6024580150545301268996181764669
202,1.6034575275335182680901136475570
203,1.6044521037496932682931614610049
204,1.6054417922598321552050342951985
205,1.6064266409079766993482147600859
206,1.6074066968393202113304351824090
207,1.6083820065137554738047443923376
208,1.6093526157190980295759367137116
209,1.6103185695839905687222815830876
210,1.6112799125904999103726065709919
211,1.6122366885864139381384776258371
212,1.6131889407972487163655170402677
213,1.6141367118379701651365153972702
214,1.6150800437244452697530867966348
215,1.6160189778846220309661903141890
216,1.6169535551694521104515140546809
217,1.6178838158635601306109752410882
218,1.6188097996956686011904289805169
219,1.6197315458487817456907090495264
220,1.6206490929701407357399927741909
221,1.6215624791809482357596555623087
222,1.6224717420858794553317637074681
223,1.6233769187823732701418176510856
224,1.6242780458697184708392988995646
225,1.6251751594579376964026913050149
226,1.6260682951764725899954131599591
227,1.6269574881826788202037850795665
228,1.6278427731701327779045989712713
229,1.6287241843767571009517328653510
230,1.6296017555927697129670804138299
231,1.6304755201684581655469090683355
232,1.6313455110217896928466096061566
233,1.6322117606458519640905450124416
234,1.6330743011161406801163889973118
235,1.6339331640976871850978425921501
236,1.6347883808520357922590219282612
237,1.6356399822440744437530111196207
238,1.6364879987487204357617262276503
239,1.6373324604574666444437890141319
240,1.6381733970847904061946226348904
241,1.6390108379744293336153781217760
242,1.6398448121055269231885278972235
243,1.6406753480986519854829630031971
244,1.6415024742216935861740735616702
245,1.6423262183956358710397392571571
246,1.6431466082002152935521666556335
247,1.6439636708794616269018824556380
248,1.6447774333471303410619711730454
249,1.6455879221920213134623712530412
250,1.6463951636831942574494745028962
251,1.6471991837750787680152246351591
252,1.6480000081124817827672269106324
253,1.6487976620354975298174710073171
254,1.6495921705843196189216115179661
255,1.6503835585039591553741055862003
256,1.6511718502488689615045974290858
257,1.6519570699874802965975248860646
258,1.6527392416066485193746839483132
259,1.6535183887160144959728633950312
260,1.6542945346522821392038825998166
261,1.6550677024834123922385001256921
262,1.6558379150127383815325828673863
263,1.6566051947830005889687983016224
264,1.6573695640803074934616469147067
265,1.6581310449380202066479589078277
266,1.6588896591405632697920634515225
267,1.6596454282271648245358452868548
268,1.6603983734955261905929589942352
269,1.6611485160054251196875781701976
270,1.6618958765822484492646542400674
271,1.6626404758204634393136290438131
272,1.6633823340870217712557906543004
273,1.6641214715247036513972141635294
274,1.6648579080553992273558077864279
275,1.6655916633833311924317173175156
276,1.6663227569982168556687231210356
277,1.6670512081783771610141729879214
278,1.6677770359937844096226097189485
279,1.6685002593090601878707002701058
280,1.6692208967864155940539592953610
281,1.6699389668885416526956514728853
282,1.6706544878814474128447094964683
283,1.6713674778372489429203474956011
284,1.6720779546369063787522911842818
285,1.6727859359729158321926425376898
286,1.6734914393519521851620302650623
287,1.6741944820974678285418325693462
288,1.6748950813522437478111532575457
289,1.6755932540808976036171578386030
290,1.6762890170723495399338684372999
291,1.6769823869422435608791079385433
292,1.6776733801353273612295242987597
293,1.6783620129277945165416726691731
294,1.6790483014295840699336629410744
295,1.6797322615866396028099612226828
296,1.6804139091831353752346084901680
297,1.6810932598436594678226960204108
298,1.6817703290353632420499408103623
299,1.6824451320700739219872807723064
300,1.6831176841063720482191053487243
301,1.6837880001516342155373151222646
302,1.6844560950640431875015686352168
303,1.6851219835545625611570397890505
304,1.6857856801888795596025916705660
305,1.6864471993893173811039885912570
306,1.6871065554367163681424228617094
307,1.6877637624722811785474513304659
308,1.6884188344994014373388693380190
309,1.6890717853854419587466490661290
310,1.6897226288635028737584177816426
311,1.6903713785341532583073623344450
312,1.6910180478671357754458240234027
313,1.6916626502030437244684425010345
314,1.6923051987549723014806632421311
315,1.6929457066101433912785883804212
316,1.6935841867315052664116259917164
317,1.6942206519593047322652487790477
318,1.6948551150126370696459628347862
319,1.6954875884909709166721294353230
320,1.6961180848756480914738969789661
321,1.6967466165313622748872882988124
322,1.6973731957076126678297513806050
323,1.6979978345401361376532693372765
324,1.6986205450523168308820280800629
325,1.6992413391565750145826444515533
326,1.6998602286557333838702856536897
327,1.7004772252443636565831776082439
328,1.7010923405101106446076579063177
329,1.7017055859349987770002950903233
330,1.7023169728967175068696234493949
331,1.7029265126698870408949243005573
332,1.7035342164273054530123617684720
333,1.7041400952411775611190866660418
334,1.7047441600843237511193299191150
335,1.7053464218313730635513788257177
336,1.7059468912599366011599119459457
337,1.7065455790517641299794058303061
338,1.7071424957938849331054726763643
339,1.7077376519797289819934151751671
340,1.7083310580102345169622804704368
341,1.7089227241949377508299057953984
342,1.7095126607530471931785916035807
343,1.7101008778145022334016635174358
344,1.7106873854210159766056741833633
345,1.7112721935271041520751999127504
346,1.7118553120010975694789345952681
347,1.7124367506261416885666878725119
348,1.7130165191011801144774394455577
349,1.7135946270419255639891038920262
350,1.7141710839818158454691686666200
351,1.7147458993729569405483468995542
352,1.7153190825870528703179597023637
353,1.7158906429163216308697409061084
354,1.7164605895743986131050217583651
355,1.7170289316972278725565613832479
356,1.7175956783439394594840433443666
357,1.7181608384977160487644023733526
358,1.7187244210666481140758453518704
359,1.7192864348845733920225087744711
360,1.7198468887119095746333000654554
361,1.7204057912364719756331594009022
362,1.7209631510742826526281446937020
363,1.7215189767703655813650207126454
364,1.7220732767995329066238361124641
365,1.7226260595671605066859277002191
366,1.7231773334099517496316885252756
367,1.7237271065966923340774091495629
368,1.7242753873289930036955275806827
369,1.7248221837420247686865613535742
370,1.7253675039052423480157364112774
371,1.7259113558230986863780190493089
372,1.7264537474357495030350752569267
373,1.7269946866197478399210043722973
374,1.7275341811887329181908150549712
375,1.7280722388941039954914069889666
376,1.7286088674256906808938063224209
377,1.7291440744124114974418410563073
378,1.7296778674229238604797566334840
379,1.7302102539662673123350361190098
380,1.7307412414924967709110485259370
381,1.7312708373933086684275963273803
382,1.7317990490026570993070724016687
383,1.7323258835973646527028774572688
384,1.7328513483977228942343278168350
385,1.7333754505680861190573534776352
386,1.7338981972174590358205396165718
387,1.7344195954000741317552408748661
388,1.7349396521159626566368997918151
389,1.7354583743115199012511308403094
390,1.7359757688800619604499386624991
391,1.7364918426623742987324098594130
392,1.7370066024472557277413808969299
393,1.7375200549720552702049611207736
394,1.7380322069232004924763082685006
395,1.7385430649367201636350448392113
396,1.7390526355987608931221593103281
397,1.7395609254460973779519483646355
398,1.7400679409666362687953782165516
399,1.7405736885999122219068182465712
400,1.7410781747375804380680231215403
401,1.7415814057239017387065877842063
402,1.7420833878562209256697577247130
403,1.7425841273854412466945680278535
404,1.7430836305164928609821942608991
405,1.7435819034087927716869784045828
406,1.7440789521767023357332593446753
407,1.7445747828899794691040791805102
408,1.7450694015742230522452165537925
409,1.7455628142113123981488554788194
410,1.7460550267398442991158417322639
411,1.7465460450555619137647227242926
412,1.7470358750117790784769362360973
413,1.7475245224198011239598328337171
414,1.7480119930493386224459518913506
415,1.7484982926289183511944414876308
416,1.7489834268462879036763415691030
417,1.7494674013488167987198329773326
418,1.7499502217438912526838470277906
419,1.7504318935993068950445642899089
420,1.7509124224436544112400828326967
421,1.7513918137667020669201942756357
422,1.7518700730197743972199524817871
423,1.7523472056161248992569719616438
424,1.7528232169313063436914393444665
425,1.7532981123035350868699609173653
426,1.7537718970340529926093406294221
427,1.7542445763874844505203575155588
428,1.7547161555921885068837882254747
429,1.7551866398406100228483255310831
430,1.7556560342896227244950739846938
431,1.7561243440608716509237064115348
432,1.7565915742411121524379292372788
433,1.7570577298825407793516212766010
434,1.7575228160031291620421511991390
435,1.7579868375869487086852793015861
436,1.7584497995844940244885000248401
437,1.7589117069130032166877891185158
438,1.7593725644567740703441500767116
439,1.7598323770674767792920493665075
440,1.7602911495644643065710645554478
441,1.7607488867350775374004580105457
442,1.7612055933349487916245288127115
443,1.7616612740883033466928238207219
444,1.7621159336882535939997921333515
445,1.7625695767970951627883026941350
446,1.7630222080465960395970173249727
447,1.7634738320382858561548959947557
448,1.7639244533437385677473104881063
449,1.7643740765048563664840397283321
450,1.7648227060341469859447355747418
451,1.7652703464150019044237382714574
452,1.7657170021019682923747688647583
453,1.7661626775210204514786885932913
454,1.7666073770698271387591922739499
455,1.7670511051180184042088248608974
456,1.7674938660074472436413102707673
457,1.7679356640524507673155330657872
458,1.7683765035401072852052874447128
459,1.7688163887304918279407718429082
460,1.7692553238569297510142358669818
461,1.7696933131262462773592609501400
462,1.7701303607190151968952874314902
463,1.7705664707898053324880178420741
464,1.7710016474674229390848664722343
465,1.7714358948551540107583898662641
466,1.7718692170310036325321742935285
467,1.7723016180479316638484035438111
468,1.7727331019340897758378423570740
469,1.7731636726930523257961893986710
470,1.7735933343040486002967605642749
471,1.7740220907221907011375888984189
472,1.7744499458787013790185630987563
473,1.7748769036811371733535440294962
474,1.7753029680136143699116386778819
475,1.7757281427370267069815928438965
476,1.7761524316892673520170546332939
477,1.7765758386854454901576532158651
478,1.7769983675181022092451359800420
479,1.7774200219574245796120586496301
480,1.7778408057514583323695442977460
481,1.7782607226263176964785714923704
482,1.7786797762863959730924593387533
483,1.7790979704145722371346952702688
484,1.7795153086724169961467668661080
485,1.7799317947003982938568799666215
486,1.7803474321180828541539817818759
487,1.7807622245243391254724555154548
488,1.7811761754975368336282660457995
489,1.7815892885957462831126642056448
490,1.7820015673569352821525980262966
491,1.7824130152991658383804483894409
492,1.7828236359207892262393240479601
493,1.7832334327006394144733924338698
494,1.7836424090982259614944590148751
495,1.7840505685539245853009179420058
496,1.7844579144891686669870200671891
497,1.7848644503066373884426163675317
498,1.7852701793904444650445360666815
499,1.7856751051063249867012127059202
500,1.786079230801822514269604895020
501,1.786482559806472194429337542817
502,1.786885095431987365779852800895
503,1.787286840972441142444401808132
504,1.787687799704450837748866424617
505,1.788087974887358094783640033426
506,1.788487369763410473906772406421
507,1.788885987557942365829691422809
508,1.789283831479554891535017107575
509,1.789680904720293041918419492712
510,1.790077210455826133098652325189
511,1.790472751845624831948860869834
512,1.790867532033138676303000356872
513,1.791261554145972730634457588883
514,1.791654821296064079593763234285
515,1.792047336579858560487749408167
516,1.792439103078485972793921580983
517,1.792830123857934868146745358805
518,1.793220401969228735868596666070
519,1.793609940448600396685910727105
520,1.793998742317667493399670790252
521,1.794386810583605906603759411843
522,1.794774148239325405660679190634
523,1.795160758263644007286286343961
