Eigenstate,Potential Energy
1,0.500000000030698787731806328861938295
2,0.64623093785150023512705613738993700
3,0.73633761029359172151278241997795512
4,0.79966527904025765225241482330814523
5,0.8480465774093986816166362940417760
6,0.8870660001565088922583554456197510
7,0.9197208287201467448341421230393004
8,0.9477838494774667947121309262785484
9,0.9723835614348734905632835249894956
10,0.9942802187410208007173545758760886
11,1.0140093915370057228645300919965276
12,1.0319621751275021550165188521975686
13,1.0484326995783539128581033654102283
14,1.0636476625727369593202471300657794
15,1.0777854452253447121836448366139471
16,1.090988916952833441570962855418889
17,1.103374268935326920781607378947901
18,1.115037265122616188106752414406507
19,1.126057765338137437639534786986619
20,1.136503062912908699977844760210298
21,1.146430390767227221421321584527595
22,1.155888832569409763605753988200191
23,1.164920800672317395556031501629585
24,1.173563193513777765335231653982687
25,1.181848312412511584539508876978824
26,1.189804595375720456146578773043124
27,1.197457210061662774754278549698723
28,1.204828537138693618907764981510485
29,1.211938567487216733547972761865855
30,1.218805231041509131195298001821638
31,1.225444670922440340314482510193011
32,1.231871473434208744518990969597511
33,1.238098862188569652103639240927196
34,1.244138862869483469218835034368281
35,1.250002443811917284297826695300915
36,1.255699636535054292808504935496636
37,1.261239639566080942900999665366384
38,1.266630908260302939399856327083307
39,1.271881232825492594090177419728166
40,1.276997806362549226719150033932360
41,1.281987284417804047428939044184431
42,1.286855837287308349845408840015132
43,1.291609196106957499143117125047974
44,1.296252693594209183913823668008859
45,1.300791300169584831678501671940227
46,1.305229656073006805298037647899886
47,1.309572099996547385214000763965562
48,1.313822694677579178209489927905618
49,1.317985249831654049489390782730581
50,1.32206334275031496123115308066194
51,1.32606033684357813828904398866763
52,1.32997939836847776743907876393282
53,1.33382351155261531800898467438652
54,1.33759549229409444028409680943378
55,1.34129800059574690557052713931651
56,1.34493355187148048167376629670322
57,1.34850452724538067243353835325877
58,1.35201318294940106366630962303150
59,1.35546165891272307059287043415235
60,1.35885198662484137412733185314309
61,1.36218609634486710590018413147356
62,1.36546582372123983677546539946593
63,1.36869291587879753460218388049522
64,1.37186903702384117701868870013260
65,1.37499577361229586515641271035275
66,1.37807463912122294503573665996088
67,1.38110707845967535212134705411138
68,1.38409447205113223369621334578966
69,1.38703813961643623298685888350876
70,1.38993934368322855070873158867051
71,1.39279929284527819596969474340607
72,1.39561914479280359608984792580848
73,1.39840000913283172849268918140615
74,1.40114295001682108926987278260384
75,1.40384898859114371191898271603598
76,1.40651910528457189299850895362972
77,1.40915424194561288302622217817100
78,1.41175530384136900276697672730068
79,1.41432316152855382506376179854424
80,1.41685865260635693672138417866484
81,1.41936258336000045347563113706794
82,1.42183573030306901052719442946649
83,1.42427884162600621733003171956802
84,1.42669263855754627360766699387344
85,1.42907781664529016739729868125229
86,1.43143504696112001053219622310832
87,1.43376497723668759617307188056021
88,1.43606823293378988526332985114939
89,1.43834541825406062662162437084816
90,1.44059711709206409865588157230077
91,1.44282389393555550863223310586982
92,1.44502629471638428789314488850666
93,1.44720484761525426636343881927938
94,1.44936006382331178094473222063259
95,1.45149243826331161836987042225562
96,1.45360245027290887097241872692516
97,1.45569056425244044171675330396864
98,1.45775723027938706053947800760905
99,1.45980288469155320186387476750814
100,1.46182795064085595273292101559912
101,1.46383283861948457685198632310069
102,1.46581794696006694511123173409016
103,1.46778366231137108954477607733290
104,1.46973036009096287297347117384666
105,1.47165840491614769282095076034119
106,1.47356815101443337334916364692704
107,1.47545994261467331860402826388638
108,1.47733411431996975880749910686983
109,1.47919099146334832939822664979762
110,1.48103089044715280179784669876907
111,1.48285411906704292378147702010748
112,1.48466097682142889369750479938657
113,1.48645175520712045698766753513350
114,1.48822673800191985570210632105115
115,1.48998620153484741320149765454823
116,1.49173041494464020459014378460437
117,1.49345964042713255041713682991405
118,1.49517413347208604007718077256829
119,1.49687414309000307762629546910713
120,1.49855991202943210049271494022389
121,1.50023167698523435431903743519702
122,1.50188966879826319403889043197373
123,1.50353411264687468835941829247161
124,1.50516522823067062501218232490049
125,1.50678322994684544787205274059791
126,1.50838832705949345974602084455887
127,1.50998072386221204674749760202875
128,1.51156061983431409298187554930740
129,1.51312820979095068103085669651935
130,1.51468368402742679185590432651286
131,1.51622722845797731362308435594064
132,1.51775902474925569175086357126432
133,1.51927925044877577089814706070131
134,1.52078807910853610365147550245543
135,1.52228568040403789232746131482250
136,1.52377222024890404277622957122189
137,1.52524786090529350112824771189598
138,1.52671276109029143243610718043480
139,1.52816707607845369425735503793330
140,1.52961095780066861225611542842234
141,1.53104455493949450741133750698245
142,1.53246801302112335115253658221860
143,1.53388147450411227457432411209753
144,1.53528507886501747824443694217598
145,1.53667896268106090136047802148859
146,1.53806325970995214026004166779457
147,1.53943810096697990332259648060925
148,1.54080361479948833126833682160140
149,1.54215992695883998378492964803791
150,1.54350716066996913333580447482540
151,1.54484543669862128038000517360093
152,1.54617487341636918914882079228043
153,1.54749558686349439364791729491341
154,1.54880769080981807310153959169887
155,1.55011129681355953280569244464798
156,1.55140651427830015672726251167372
157,1.55269345050812387842563380810313
158,1.55397221076100598837130492437836
159,1.5552428983005139504678067287804
160,1.5565056144458865652875227368660
161,1.5577604586205499761133437349679
162,1.5590075283991299788584326399574
163,1.5602469195530154891343082749363
164,1.5614787260945278030332775681345
165,1.5627030403197442518137370124450
166,1.5639199528500267660479273385102
167,1.5651295526723025815226961263128
168,1.5663319271781397757776304807418
169,1.5675271622016626973420412162532
170,1.5687153420563470307576457407858
171,1.5698965495707346918184056688948
172,1.5710708661231064196566362535458
173,1.5722383716751474679768288175224
174,1.5733991448046422389223212267569
175,1.5745532627372318444786353064812
176,1.5757008013772643017371812786443
177,1.5768418353377706225277912505643
178,1.5779764379695959517870463776258
179,1.5791046813897121995791756435134
180,1.5802266365087431131392412232640
181,1.5813423730577244374955977960478
182,1.5824519596141268600278364602334
183,1.5835554636271647882048902207045
184,1.5846529514424152020100508850625
185,1.5857444883257683891470119557297
186,1.5868301384867315316165802310035
187,1.5879099651011089441322849345202
188,1.5889840303330744006594344626841
189,1.5900523953566592801357084587252
190,1.5911151203766721824180543121334
191,1.5921722646490692369745033634014
192,1.5932238865007914864900890714624
193,1.5942700433490876492001735000535
194,1.5953107917203356006988957219545
195,1.5963461872683805075456904696872
196,1.5973762847924033045336800291578
197,1.5984011382543338909042385618404
198,1.5994208007958232074498458665647
199,1.6004353247547870283219057258213
200,1.6014447616815354077055185818077
201,1.6024491623544987577410414284519
202,1.6034485767955639338050312818117
203,1.6044430542850309818334819888066
204,1.6054326433762021625501973437902
205,1.6064173919096132179132100242757
206,1.6073973470269198984775658276928
207,1.6083725551844456223009017918085
208,1.6093430621664044867977606358026
209,1.6103089130978053763712758426612
210,1.6112701524570486614225714766214
211,1.6122268240882228476953529543978
212,1.6131789712131114030791011346621
213,1.6141266364429141397600008837048
214,1.6150698617896981274043132730127
215,1.6160086886775773436002123809666
216,1.6169431579536350160097804078388
217,1.6178733098985926152678423620044
218,1.6187991842372344710718581874791
219,1.6197208201485912843930153912467
220,1.6206382562758950439304132598557
221,1.6215515307363032490921989128379
222,1.6224606811304096368631027760306
223,1.6233657445515349733832901561603
224,1.6242667575948129695306196149775
225,1.6251637563660738770424459111898
226,1.6260567764905293031113312408575
227,1.6269458531212668862947674953194
228,1.6278310209475566439316195827522
229,1.6287123142029761432021573640116
230,1.6295897666733591820614196831620
231,1.6304634117045697693018667447194
232,1.6313332822101118126513496130133
233,1.6321994106785695003960992391939
234,1.6330618291808945225797196918773
235,1.6339205693775333028630701166337
236,1.6347756625254039397981084026733
237,1.6356271394847264776273120629178
238,1.6364750307257082376037961787739
239,1.6373193663350896453960160213699
240,1.6381601760225527079773494012846
241,1.6389974891269964213320079731195
242,1.6398313346226819649097803296814
243,1.6406617411252517135849684029372
244,1.6414887368976237553371174437833
245,1.6423123498557662877458080793432
246,1.6431326075743544118483242831693
247,1.6439495372923107051262655930163
248,1.6447631659182371541564914336583
249,1.6455735200357334154220744850978
250,1.6463806259086117883848085170346
251,1.6471845094860068002262991623552
252,1.6479851964073822001534166811691
253,1.6487827120074404348661848573522
254,1.6495770813209342614410375253591
255,1.6503683290873843770539645194361
256,1.6511564797557031503058904430542
257,1.6519415574887308448899162573306
258,1.6527235861676807796546157562904
259,1.6535025893965002279093547611157
260,1.6542785905061474416710976794732
261,1.6550516125587851139059291550439
262,1.6558216783518950034919283948672
263,1.6565888104223125727861484062188
264,1.6573530310501870879486466731395
265,1.6581143622628657065516112977383
266,1.6588728258387037195058195301477
267,1.6596284433108041598367953111049
268,1.6603812359706868113098165094484
269,1.6611312248718908861027436606959
270,1.6618784308335070949512298904289
271,1.6626228744436483930025868274513
272,1.6633645760628533802223574675723
273,1.6641035558274297987476737561801
274,1.6648398336527353354847133155475
275,1.6655734292363996048091662263130
276,1.6663043620614855890019400536394
277,1.6670326513995980197129097255192
278,1.6677583163139304543801985433970
279,1.6684813756622625500525079875095
280,1.6692018480998996274638693091578
281,1.6699197520825624141670022982054
282,1.6706351058692244629768760054720
283,1.6713479275249004581541249341289
284,1.6720582349233825658465656189531
285,1.6727660457499316360333760324078
286,1.6734713775039192806996964608721
287,1.6741742475014258875166085846803
288,1.6748746728777909707858104454127
289,1.6755726705901205076963860977150
290,1.6762682574197519924044914460569
291,1.6769614499746750488596024780509
292,1.6776522646919104872672567474124
293,1.6783407178398517099462027209223
294,1.6790268255205635034784640911039
295,1.6797106036720403042799349425376
296,1.6803920680704315231356578843320
297,1.6810712343322238604077326559320
298,1.6817481179163899286505876217361
299,1.6824227341264999854727359071427
300,1.6830950981127985272315503924421
301,1.6837652248742461549797717242927
302,1.6844331292605288055776399056990
303,1.6850988259740315210803443890902
304,1.6857623295717803339110844747531
305,1.6864236544673536963274150040860
306,1.6870828149327627173815019721310
307,1.6877398251002973893287307512625
308,1.6883946989643462819142797154953
309,1.6890474503831857938042259218201
310,1.6896980930807392963086547323985
311,1.6903466406483097643005419480042
312,1.6909931065462834074647032237595
313,1.6916375041058056946260640891633
314,1.6922798465304315754328369048306
315,1.6929201468977492190386013566887
316,1.6935584181609786454268878906951
317,1.6941946731505427879845470473216
318,1.6948289245756163385705587514149
319,1.6954611850256495166438491623824
320,1.6960914669718667637097706922785
321,1.6967197827687442820214295593391
322,1.6973461446554625319686773703296
323,1.6979705647573372021952295477916
324,1.6985930550872276295859010522061
325,1.6992136275469244311064129699474
326,1.6998322939285145847245005320556
327,1.7004490659157267801693631664404
328,1.7010639550852542287266939650479
329,1.7016769729080599069292407016661
330,1.7022881307506606658114872928776
331,1.7028974398763916443063992002634
332,1.7035049114466520480106765489659
333,1.7041105565221326718579369136989
334,1.7047143860640233507079501183696
335,1.7053164109352046527687138082124
336,1.7059166419014198738871916335215
337,1.7065150896324302049393943394704
338,1.7071117647031541311560830708913
339,1.7077066775947871278753594435053
340,1.7082998386959077440473987276744
341,1.7088912583035657870531650279867
342,1.7094809466243551059710753899791
343,1.7100689137754706110657477693538
344,1.7106551697857495231901893121880
345,1.7112397245966986724207527764767
346,1.7118225880635053207040770282736
347,1.7124037699560350738600876093331
348,1.7129832799598136946496693281601
349,1.7135611276769963618163438316730
350,1.7141373226273219174283470193521
351,1.7147118742490541901096795758413
352,1.7152847918999100765109440311671
353,1.7158560848579736653840955159849
354,1.7164257623225978187232932682092
355,1.7169938334152935752418421990268
356,1.7175603071806055859607035567433
357,1.7181251925869768209397637298587
358,1.7186884985276017911462130439093
359,1.7192502338212640305923374552046
360,1.7198104072131667766560407568484
361,1.7203690273757485934466271309712
362,1.7209261029094904198113095520624
363,1.7214816423437086375897393109088
364,1.7220356541373391841061072309861
365,1.7225881466797109452616831360926
366,1.7231391282913073068936312672069
367,1.7236886072245187564063268849811
368,1.7242365916643833234020304417669
369,1.7247830897293194918526766962363
370,1.7253281094718472969861397914219
371,1.7258716588793004601940885468267
372,1.7264137458745285184388397469390
373,1.7269543783165889148734868043292
374,1.7274935640014333591534729768416
375,1.7280313106625791490085548076015
376,1.7285676259717769092899870261583
377,1.7291025175396665377031664345044
378,1.7296359929164245246362706966210
379,1.7301680595924044868866360102267
380,1.7306987249987676720492230004998
381,1.7312279965081063090032415828886
382,1.7317558814350569226662299518955
383,1.7322823870369082876776661453736
384,1.7328075205141989847124913355030
385,1.7333312890113081806797223258341
386,1.7338536996170402914576507783035
387,1.7343747593651992765019207878821
388,1.7348944752351565021232433797275
389,1.7354128541524128481185512828385
390,1.7359299029891522468592895937265
391,1.7364456285647869717745697184934
392,1.7369600376464982836026806342328
393,1.7374731369497699078941805113275
394,1.7379849331389129248589062667765
395,1.7384954328275849284257954759223
396,1.7390046425793031053788229883921
397,1.7395125689079508644724751779618
398,1.7400192182782780236564635071175
399,1.7405245971063931211966438758537
400,1.7410287117602521506450688683844
401,1.7415315685601397685740484159774
402,1.7420331737791437202865126609678
403,1.7425335336436253042378939562512
404,1.7430326543336837682543216435675
405,1.7435305419836121029885490541658
406,1.7440272026823503416437557918651
407,1.7445226424739334826806127071379
408,1.7450168673579315386981954584432
409,1.7455098832898845725611322248257
410,1.7460016961817352352479510740260
411,1.7464923119022530654343212307927
412,1.7469817362774541333972870741892
413,1.7474699750910171082964667978791
414,1.7479570340846921726741422461172
415,1.7484429189587070681340644378506
416,1.7489276353721667018285607202785
417,1.7494111889434491622381868295352
418,1.7498935852505953074775074810811
419,1.7503748298316962046366668402089
420,1.7508549281852734020775599833669
421,1.7513338857706559868671406646424
422,1.7518117080083537089480570568960
423,1.7522884002804240081844837980027
424,1.7527639679308365580069912260731
425,1.7532384162658317050136482945890
426,1.7537117505542764113665886028654
427,1.7541839760280151846112539521488
428,1.7546550978822160086047134434054
429,1.7551251212757151879382400216753
430,1.7555940513313539679582537693028
431,1.7560618931363144340370568758589
432,1.7565286517424518396059737985316
433,1.7569943321666187008446582605814
434,1.7574589393909917559618969045545
435,1.7579224783633896127388442128358
436,1.7583849539975889853225010397756
437,1.7588463711736376816357643610188
438,1.7593067347381633234651724742907
439,1.7597660495046784805274516829786
440,1.7602243202538832897249036690344
441,1.7606815517339627194383225237693
442,1.7611377486608820425011320524730
443,1.7615929157186801655447170049498
444,1.7620470575597554340832752852714
445,1.7625001788051532439917034098139
446,1.7629522840448464837220815373583
447,1.7634033778380159764221566030881
448,1.7638534647133241401533155193096
449,1.7643025491691897067077014292971
450,1.7647506356740556514605102866328
451,1.7651977286666578373469673774960
452,1.7656438325562872143073127838889
453,1.7660889517230513172661540370264
454,1.7665330905181314515897493452007
455,1.7669762532640391898886384913241
456,1.7674184442548674771587830940131
457,1.7678596677565410399632859932417
458,1.7682999280070624955452340106601
459,1.7687392292167566747914319302964
460,1.7691775755685128013840561307962
461,1.7696149712180223768597707504381
462,1.7700514202940159846208710551582
463,1.7704869268984976166646935131232
464,1.7709214951069746839305191647379
465,1.7713551289686876789948041122304
466,1.7717878325068366218064039136620
467,1.7722196097188035689718305466539
468,1.7726504645763762022265957959690
469,1.7730804010259649727847173401972
470,1.7735094229888213261003780672461
471,1.7739375343612512741455984295461
472,1.7743647390148286128080239734917
473,1.7747910407966031353087875110210
474,1.7752164435293113456267980898363
475,1.7756409510115785946808488348332
476,1.7760645670181251530690349805438
477,1.7764872952999665533567975010897
478,1.7769091395846128778973413676953
479,1.7773301035762658815619728157528
480,1.7777501909560143439567390129710
481,1.7781694053820262019941541037742
482,1.7785877504897410316008482612911
483,1.7790052298920582585521550372652
484,1.7794218471795239181816848191750
485,1.7798376059205174408353630172139
486,1.7802525096614330478559034627040
487,1.7806665619268626068726851907789
488,1.7810797662197745428758403665438
489,1.7814921260216920331660481526037
490,1.7819036447928683492164273162093
491,1.7823143259724614796377393169605
492,1.7827241729787066223422063440676
493,1.7831331892090865208191627625503
494,1.7835413780405007384680393717559
495,1.7839487428294320633859061011258
496,1.7843552869121132879324059435180
497,1.7847610136046900484912805795914
498,1.7851659262033836705789283668719
499,1.7855700279846515165180905640876
500,1.785973322205346966040323679013
501,1.786375812102874775722095124711
502,1.786777500895349272294286193728
503,1.787178391781746847812167207786
504,1.787578487942060600377362979976
505,1.787977792537449967729872027353
506,1.788376308710391083648338276238
507,1.788774039584825705029756243991
508,1.789170988266308349453492400283
509,1.789567157842149873958854516324
510,1.789962551381563548109751089567
511,1.790357171935806852261148354113
512,1.790751022538322901056019979432
513,1.791144106204880107724757467923
514,1.791536425933710765486874027175
515,1.791927984705648920188391428267
516,1.792318785484265744400764614471
517,1.792708831216003487612324688007
518,1.793098124830309787787822057940
519,1.793486669239769126134302759011
520,1.793874467340234281970806928779
521,1.794261522010954582826132667239
522,1.794647836114705225862007497346
523,1.795033412497914107678460100103
