Eigenstate,Potential Energy
1,0.500000000013689199932777474927712000
2,0.64623093774047057157694037593560189
3,0.73633760996745132324098873320390107
4,0.79966527836094523991053616665848679
5,0.8480465762326923306420315474560024
6,0.8870659983356637403379034170775838
7,0.9197208261072357462056349029413157
8,0.9477838459239402665800167885851436
9,0.9723835567918196669025075685672309
10,0.9942802128592984103726616654801781
11,1.0140093842673163227342089421857134
12,1.0319621663204317635338097332058500
13,1.0484326890843979306271541335757541
14,1.0636476502423154716673745148181271
15,1.0777854309088119894801595456869426
16,1.090988900500483795056067343695591
17,1.103374250197398187852071245499964
18,1.115037243949291628029017853782103
19,1.126057741579546532427482992446240
20,1.136503036419127183088068347582961
21,1.146430361388276550176137489470186
22,1.155888800155256183185444845847068
23,1.164920765072870697902279256317290
24,1.173563154578889816557631838872944
25,1.181848269991974674120334925162710
26,1.189804549319265507134183753807666
27,1.197457160218957444167390748724234
28,1.204828483359340310418881983612129
29,1.211938509620750539306418208072915
30,1.218805168937395715809899150603269
31,1.225444604430073777148979415671273
32,1.231871402402909312289251481911418
33,1.238098786467581598115121906758084
34,1.244138782307972744311459053946928
35,1.250002358258969253577389515955669
36,1.255699545839671425469392974398014
37,1.261239543577180483833099940460670
38,1.266630806826714564785600450401111
39,1.271881125795956052807294114350599
40,1.276997693585711969049694441482831
41,1.281987165742218842319430821687257
42,1.286855712561430891753991888185681
43,1.291609065179144005338045243720906
44,1.296252556312713982945898122661579
45,1.300791156382557943632460562545016
46,1.305229505628491514329801473652951
47,1.309571942742477804798512006248351
48,1.313822530461777809454698901652328
49,1.317985078501829332813505708079100
50,1.32206316415405882165068002819197
51,1.32606015082836352452286809781916
52,1.32997920478165618499773976556738
53,1.33382331024141435640729524934949
54,1.33759528310561529448855187310136
55,1.34129778337696189176989679776736
56,1.34493332646923054744126690396337
57,1.34850429350637290133161796837184
58,1.35201294072020617432985511235820
59,1.35546140803977291031345084390570
60,1.35885172695442640694939731346400
61,1.36218582772313389522991956300698
62,1.36546554599418852249391456919646
63,1.36869262889227930466628398762330
64,1.37186874062355573352675713205986
65,1.37499546764378888484824417031920
66,1.37807432342988353419187751002140
67,1.38110675289073349582102187197692
68,1.38409413644965623938886999636039
69,1.38703779382733016832813828813085
70,1.38993898755122967560811260017600
71,1.39279892621495438879355569728962
72,1.39561876750855077396081334444699
73,1.39839962103887126162324562980590
74,1.40114255095719720926579284668839
75,1.40384857840972091398572981232338
76,1.40651868382503233198172404494153
77,1.40915380905145376321540783801964
78,1.41175485935589996138968213192791
79,1.41432270529489430939589240415359
80,1.41685818446743357473774067254220
81,1.41936210315854441796326522093886
82,1.42183523788161337658284625795891
83,1.42427833682688331316161456444624
84,1.42669212122288502455858452745696
85,1.42907728661701343311119330917350
86,1.43143450408094191517471254326080
87,1.43376442134611085162611474729976
88,1.43606766387410310720636068871877
89,1.43834483586633564341360842928283
90,1.44059652121715325293057471660864
91,1.44282328441408895151862633649058
92,1.44502567138876726577207121052546
93,1.44720421032166440007050645498355
94,1.44935941240369633732899657888319
95,1.45149177255738477411684500227630
96,1.45360177012014896859933804798018
97,1.45568986949208723764719314621099
98,1.45775652075043896516381688390389
99,1.45980216023276451149127771404547
100,1.46182721109073407333991503768634
101,1.46383208381628723953196928454804
102,1.46581717674179941312858687702389
103,1.46778287651578335689666456422622
104,1.46972955855554685436155772265341
105,1.47165758747813440493485150940593
106,1.47356731751079010736261343244186
107,1.47545909288210080378417661187934
108,1.47733324819489931713710918692844
109,1.47919010878193902110985059058396
110,1.48102999104528856171846958006257
111,1.48285320278032968838543888143248
112,1.48466004348519171876487942277088
113,1.48645080465640062576464315797661
114,1.48822577007147197745925155931494
115,1.48998521605913651208515375186787
116,1.49172941175783879866154061822725
117,1.49345861936311772077318715382076
118,1.49517309436443648994621829389586
119,1.49687308577199618133141246177727
120,1.49855883633404094217465687026990
121,1.50023058274512475630996311037560
122,1.50188855584579073477763778588833
123,1.50353298081408170973822995636440
124,1.50516407734928322904420120167631
125,1.50678205984827048256815946082241
126,1.50838713757481549408894177588858
127,1.50997951482219033465043492145096
128,1.51155939106937952611811924259953
129,1.51312696113120273042023411981496
130,1.51468241530263043809318877525128
131,1.51622593949755996563276305679765
132,1.51775771538230409395181149367403
133,1.51927792050403289866134309822493
134,1.52078672841439804693281997439613
135,1.52228430878855072735715372334672
136,1.52377082753976069168552345221690
137,1.52524644692983057939343421065943
138,1.52671132567548608401895395730847
139,1.52816561905092041432040206769357
140,1.52960947898665605733047084746827
141,1.53104305416488229289387863980261
142,1.53246649011141883600846252613600
143,1.53387992928444733312044571420956
144,1.53528351116014525888750795352043
145,1.53667737231535257216432855518841
146,1.53806164650739362121421345425226
147,1.53943646475116858518448139802681
148,1.54080195539362978084997314155180
149,1.54215824418574463555466068616093
150,1.54350545435204896720428528297837
151,1.54484370665788648553901667355462
152,1.54617311947442481383061043453578
153,1.54749380884153698067178048336002
154,1.54880588852863228107360196534906
155,1.55010947009351474283684514416112
156,1.55140466293934706453319641585405
157,1.55269157436979107167224085277293
158,1.55397030964239650912758514786930
159,1.5552409720203018426275236166207
160,1.5565036628223134068199375631821
161,1.5577584814714213960023366249417
162,1.5590055255418121585883451988727
163,1.5602448908044316485799784219199
164,1.5614766712711546706105730424077
165,1.5627009592376085187459200773281
166,1.5639178453247015246023402534442
167,1.5651274185189037470710173522041
168,1.5663297662113224925319852486714
169,1.5675249742356177276183232948976
170,1.5687131269047971276160912001990
171,1.5698943070469309549306781116485
172,1.5710685960398246342473541940570
173,1.5722360738446844266866169563519
174,1.5733968190388120464381192310459
175,1.5745509088473622047760385521942
176,1.5756984191741927877784259329874
177,1.5768394246318409282578171384350
178,1.5779739985706541262690108601552
179,1.5791022131071028631095240166813
180,1.5802241391513056551813232253962
181,1.5813398464337891962696492025915
182,1.5824494035315112835938783526423
183,1.5835528778931695768739549215687
184,1.5846503358638204319179048442845
185,1.5857418427088296168231736675007
186,1.5868274626371758793805188530899
187,1.5879072588241311661469979698916
188,1.5889812934333329294716519389216
189,1.5900496276382722535305071486378
190,1.5911123216432134504144283925490
191,1.5921694347035643487871247104071
192,1.5932210251457136572810833533449
193,1.5942671503863537064435292922817
194,1.5953078669513019099786170647773
195,1.5963432304938388776075448972256
196,1.5973732958125768714089447973107
197,1.5983981168688729809224214493537
198,1.5994177468038011789560617302480
199,1.6004322379546960919129780763015
200,1.6014416418712824247975732884447
201,1.6024460093314010172799016706642
202,1.6034453903563449069290421842830
203,1.6044398342258160542972133822707
204,1.6054293894925143447156386829240
205,1.6064141039963688321138947705604
206,1.6073940248784242435591678340840
207,1.6083691985943886151405639448253
208,1.6093396709278562806026484605302
209,1.6103054870032119555554306183758
210,1.6112666912982274128593566384336
211,1.6122233276563581081413371549893
212,1.6131754392987499825634709287607
213,1.6141230688359608207319072885884
214,1.6150662582794111394290365360434
215,1.6160050490525638133931440515211
216,1.6169394820018463925956454741066
217,1.6178695974073200700508378904291
218,1.6187954349931042726005899081604
219,1.6197170339375601476023607868701
220,1.6206344328832454536406959347112
221,1.6215476699466387575442073889555
222,1.6224567827276501350656693040719
223,1.6233618083189119360483947589657
224,1.6242627833148646733689959022269
225,1.6251597438206405921908050614725
226,1.6260527254607484574605383572345
227,1.6269417633875682024862337507118
228,1.6278268922896572487873621863700
229,1.6287081463998756493518949426720
230,1.6295855595033347415281936685370
231,1.6304591649451710988056176835811
232,1.6313289956381561903878857265715
233,1.6321950840701367340468321378593
234,1.6330574623113218883054285961389
235,1.6339161620214104550329781742441
236,1.6347712144565677912033965373083
237,1.6356226504762560499259599895795
238,1.6364705005499194817416487921627
239,1.6373147947635302317467081532707
240,1.6381555628259967859414852023821
241,1.6389928340754393481337811576424
242,1.6398266374853350033271701778575
243,1.6406570016705366983469668783056
244,1.6414839548931677279195572965356
245,1.6423075250683960992948354591171
246,1.6431277397700912939580713724575
247,1.6439446262363648081953665293012
248,1.6447582113750020530451206637776
249,1.6455685217687805821292300699134
250,1.6463755836806850314627451301163
251,1.6471794230590166706469099381789
252,1.6479800655424003633384452568391
253,1.6487775364646940085911151387029
254,1.6495718608598001193194325373765
255,1.6503630634663834173068490804550
256,1.6511511687324945295178422478612
257,1.6519362008201061764511800462532
258,1.6527181836095582965857277817739
259,1.6534971407039189097620144594392
260,1.6542730954332611051966450529931
261,1.6550460708588564671793183892676
262,1.6558160897772896631771246621308
263,1.6565831747244930442254877740151
264,1.6573473479797067077561773826969
265,1.6581086315693625473872673123069
266,1.6588670472708944567047055466703
267,1.6596226166164778995646534360253
268,1.6603753608966988799127933070139
269,1.6611253011641565803168275548425
270,1.6618724582369953926333854955881
271,1.6626168527023756240426940410286
272,1.6633585049198768572918810580772
273,1.6640974350248414075379642628399
274,1.6648336629316550840845947743146
275,1.6655672083369691318684014934261
276,1.6662980907228616303234619035998
277,1.6670263293599458329141070341678
278,1.6677519433104172012596330968887
279,1.6684749514310506362955995677044
280,1.6691953723761399993171934966087
281,1.6699132246003878117077904852516
282,1.6706285263617426296006729344177
283,1.6713412957241873059001222680129
284,1.6720515505604752961768715872441
285,1.6727593085548218156780026807535
286,1.6734645872055458721765535648253
287,1.6741674038276682339314815611957
288,1.6748677755554617345136443812569
289,1.6755657193449585625417109620683
290,1.6762612519764152688347476305480
291,1.6769543900567333319015409415377
292,1.6776451500218381666525626644908
293,1.6783335481390204820888749448154
294,1.6790196005092350248618096792898
295,1.6797033230693587958281070538674
296,1.6803847315944163251396970052733
297,1.6810638416997619375723572639780
298,1.6817406688432283248240708018585
299,1.6824152283272382276176198053841
300,1.6830875353008809781898615191390
301,1.6837576047619543145822713393865
302,1.6844254515589735596421205238499
303,1.6850910903931453378397447042575
304,1.6857545358203094074078570808688
305,1.6864158022528500363057893857485
306,1.6870749039615761852051007747779
307,1.6877318550775676794462874760566
308,1.6883866695939948483915969492870
309,1.6890393613679077214357465968775
310,1.6896899441219951158174494998649
311,1.6903384314463172111309185074704
312,1.6909848368000091236659413275324
313,1.6916291735129568733221470736970
314,1.6922714547874475473670834138952
315,1.6929116936997929806775838604385
316,1.6935499032019283281028217031030
317,1.6941860961229830675503400700642
318,1.6948202851708297850363655089505
319,1.6954524829336078832586983444548
320,1.6960827018812222149468676167187
321,1.6967109543668205599201040381446
322,1.6973372526282460602803536714753
323,1.6979616087894681277759338984502
324,1.6985840348619908004715705373266
325,1.6992045427462403107021203898624
326,1.6998231442329301015326886091069
327,1.7004398510044061124770428606640
328,1.7010546746359695236648946855301
329,1.7016676265971819333128989792302
330,1.7022787182531494001614639583150
331,1.7028879608657867894497089977538
332,1.7034953655950634836486494457861
333,1.7041009435002308364860967899885
334,1.7047047055410295542649398001098
335,1.7053066625788813193853489947064
336,1.7059068253780607141006456599958
337,1.7065052046068503167305908305598
338,1.7071018108386800291621671163487
339,1.7076966545532467001226427753099
340,1.7082897461376201355430300807875
341,1.7088810958873312095673076248756
342,1.7094707140074445733346375427646
343,1.7100586106136155993015541424517
344,1.7106447957331315547886487415318
345,1.7112292793059388240638671766456
346,1.7118120711856536537347474629361
347,1.7123931811405599867858862787140
348,1.7129726188545911969632872125960
349,1.7135503939282992684077906576978
350,1.7141265158798089628556045211401
351,1.7147009941457590619877130872581
352,1.7152738380822303672709454220347
353,1.7158450569656597416468570563367
354,1.7164146599937416075231245129415
355,1.7169826562863172663292368699259
356,1.7175490548862502494038527008767
357,1.7181138647602909392368973747385
358,1.7186770947999297050525762476578
359,1.7192387538222342978571932466756
360,1.7197988505706804428562053597186
361,1.7203573937159673740953189379595
362,1.7209143918568247929114814947460
363,1.7214698535208058457929565428993
364,1.7220237871650711456289914439926
365,1.7225762011771620727026528161281
366,1.7231271038757622330835647714911
367,1.7236765035114499664183563458655
368,1.7242244082674386918349779831234
369,1.7247708262603097244943750215980
370,1.7253157655407332759527751288069
371,1.7258592340941804916320630259336
372,1.7264012398416254818658600045358
373,1.7269417906402373132256856769213
374,1.7274808942840662685953889800750
375,1.7280185585047150675524880472653
376,1.7285547909720065032610856577868
377,1.7290895992946392850757922371266
378,1.7296229910208352542572605290968
379,1.7301549736389798125899353583060
380,1.7306855545782523206557522101337
381,1.7312147412092493411885127666757
382,1.7317425408445978456677680275485
383,1.7322689607395630588024947543936
384,1.7327940080926459045940063280130
385,1.7333176900461736752210751403170
386,1.7338400136868845813881629343119
387,1.7343609860465019334601996906793
388,1.7348806141023018901691778142913
389,1.7353989047776754495644402792098
390,1.7359158649426818712976327748849
391,1.7364315014145938471679337719006
392,1.7369458209584380282885244592843
393,1.7374588302875283823443572318801
394,1.7379705360639909620212454648090
395,1.7384809448992829414617515037744
396,1.7389900633547055715979362775938
397,1.7394978979419106842509285470004
398,1.7400044551234007531138294877361
399,1.7405097413130210773908217918379
400,1.7410137628764483880313940534830
401,1.7415165261316719254609540641141
402,1.7420180373494677340051887120549
403,1.7425183027538689937292803461469
404,1.7430173285226302827622328384601
405,1.7435151207876832355326997702066
406,1.7440116856355897059311051580879
407,1.7445070291079895520989369281852
408,1.7450011572020405460196278327813
409,1.7454940758708532689682945819981
410,1.7459857910239235072790222744404
411,1.7464763085275564084278451444080
412,1.7469656342052859800008058714760
413,1.7474537738382910105867442304394
414,1.7479407331658038364201923659655
415,1.7484265178855162377169964682526
416,1.7489111336539788943153808046855
417,1.7493945860869972490893892246362
418,1.7498768807600209423503918920765
419,1.7503580232085310957284953212066
420,1.7508380189284204274351431259756
421,1.7513168733763701510705301421888
422,1.7517945919702229395575577401858
423,1.7522711800893497903220534287995
424,1.7527466430750144054229670524958
425,1.7532209862307314659715300430817
426,1.7536942148226224076581736542761
427,1.7541663340797661819952765671739
428,1.7546373491945450169415095903235
429,1.7551072653229890892731086200575
430,1.7555760875851129707849788383564
431,1.7560438210652513519528499702848
432,1.7565104708123911925471248931078
433,1.7569760418404956370714207369238
434,1.7574405391288307929387534222366
435,1.7579039676222831950348030905567
436,1.7583663322316758576330290525335
437,1.7588276378340810750060695974921
438,1.7592878892731289527708418933679
439,1.7597470913593123512456534842756
440,1.7602052488702893120054075772466
441,1.7606623665511801274601573556687
442,1.7611184491148626170754512417335
443,1.7615735012422652579010908525760
444,1.7620275275826527887504709452411
445,1.7624805327539136186597426680051
446,1.7629325213428400639458565051555
447,1.7633834979054085830017465699533
448,1.7638334669670532269989323825285
449,1.7642824330229401469709222979636
450,1.7647304005382353096863848943517
451,1.7651773739483729253741425867695
452,1.7656233576593174286149111888016
453,1.7660683560478247554384756211310
454,1.7665123734616993055413171398265
455,1.7669554142200502134621443543500
456,1.7673974826135422256802302747943
457,1.7678385829046458793077245297349
458,1.7682787193278833782367514766732
459,1.7687178960900726806300724211131
460,1.7691561173705694400613698148968
461,1.7695933873215046499927931844080
462,1.7700297100680212046028480291379
463,1.7704650897085079796971633356339
464,1.7708995303148295945698241843013
465,1.7713330359325558235117580484395
466,1.7717656105811877876238226958655
467,1.7721972582543802074107673661904
468,1.7726279829201647317569035666949
469,1.7730577885211668199395690787894
470,1.7734866789748237011799630009113
471,1.7739146581735976787965081259576
472,1.7743417299851890765304314586373
473,1.7747678982527441779034388004385
474,1.7751931667950656625578550279912
475,1.7756175394068144622905947784969
476,1.7760410198587155505419538528387
477,1.7764636118977579982905504868775
478,1.7768853192473939722976358654416
479,1.7773061456077355650379394454207
480,1.7777260946557498508513307061715
481,1.7781451700454507191419882512435
482,1.7785633754080910533632612365116
483,1.7789807143523506357357656182831
484,1.7793971904645225974027800749442
485,1.7798128073086998908475156895236
486,1.7802275684269563693130992233681
487,1.7806414773395293219539755905715
488,1.7810545375449980611507567534825
489,1.7814667525204617900328350700562
490,1.7818781257217146131965262625997
491,1.7822886605834198247617696568234
492,1.7826983605192820618119291021414
493,1.7831072289222172980811954228090
494,1.7835152691645217717822832465031
495,1.7839224845980380399209340721441
496,1.7843288785543214033664118718307
497,1.7847344543448023880444510058876
498,1.7851392152609492273491218991897
499,1.7855431645744278429347891766169
500,1.785946305537261454198330916687
501,1.786348641381985562296940350346
502,1.786750175321805763686553350811
503,1.787150910550749861106464484474
504,1.787550850243822115644210662934
505,1.787949997557152487137707705302
506,1.788348355628146592790526826438
507,1.788745927575634231811647739929
508,1.789142716500016115818337193117
509,1.789538725483407035668803069305
510,1.789933957589781517733957445103
511,1.790328415865115200453624940810
512,1.790722103337525831141326671009
513,1.791115023017412498540861388243
514,1.791507177897593777363345849905
515,1.791898570953445158869366004394
516,1.792289205143033977650425219860
517,1.792679083407252909166200080621
518,1.793068208669953823241371547684
519,1.793456583838078775284015679140
520,1.793844211801790992046595192285
521,1.794231095434602646976867779995
522,1.794617237593503701177556786782
523,1.795002641119088246950486787677
