Eigenstate,Potential Energy
1,0.500000000100674468442412093939604146
2,0.64623093830826691302946796995284919
3,0.73633761163531565225654770094485860
4,0.79966528183494014014982752775581055
5,0.8480465822504152610863488518814569
6,0.8870660076476544978376298876055386
7,0.9197208394701303187542787453296263
8,0.9477838640976197135517739243951226
9,0.9723835805380880272264710979736602
10,0.9942802429412150758146682525041259
11,1.0140094214488365082281686367218839
12,1.0319622113662039838316553981744135
13,1.0484327427596469565431423158845305
14,1.0636477133127744847858870283752705
15,1.0777855041406844222619432356976438
16,1.090988984660423822832430396980278
17,1.103374346052503358706095159530591
18,1.115037352267103637801628876492219
19,1.126057863128057615770210097250947
20,1.136503171966790471559667946816311
21,1.146430511704019294259811285111114
22,1.155888966008495083211247911323964
23,1.164920947233528816434734285412639
24,1.173563353817414696955470080933772
25,1.181848487079357393777764519798194
26,1.189804785027060466049929799982838
27,1.197457415319302740469701128282960
28,1.204828758624978591065398454119253
29,1.211938805825050240814548093890383
30,1.218805486854372629519008472598194
31,1.225444944834412888181649262571783
32,1.231871766069986872450609171087396
33,1.238099174173487401415552607182892
34,1.244139194829532580304326891235923
35,1.250002796373767518761259368447088
36,1.255700010326073876969652941036518
37,1.261240035214357122712156252378207
38,1.266631326394662638826597179200793
39,1.271881674075523170618151113344457
40,1.276998271358619318950839494607907
41,1.281987773791084510792258185877880
42,1.286856351669793277301423487046129
43,1.291609736131485324492248755426306
44,1.296253259894483865889017677197728
45,1.300791893380197117504086547552974
46,1.305230276829455572803181831363487
47,1.309572748935261062934318982892524
48,1.313823372435937243201876818638675
49,1.317985957048008602832625198159680
50,1.32206408006401238139593824199482
51,1.32606110489498081274247909166987
52,1.32998019779898590300461121169291
53,1.33382434300468883063807931286126
54,1.33759635641127492501365437830923
55,1.34129889802267968754295291659799
56,1.34493448325393674918711027513176
57,1.34850549323027969306895615552766
58,1.35201418418483248461135495235038
59,1.35546269604796930434219397027696
60,1.35885306031040007079945194600967
61,1.36218720723247371346021421598501
62,1.36546697246389025050043263583098
63,1.36869410313077083716790816834202
64,1.37187026344072247062618036899539
65,1.37499703985099919715196911508220
66,1.37807594584001432851206748332070
67,1.38110842631819588301832233856420
68,1.38409586171042130594906536088705
69,1.38703957173895485329741753071394
70,1.38994081893288275454104102752317
71,1.39280081188744256639684844209126
72,1.39562070829434488714221659073801
73,1.39840161776213259468120013234735
74,1.40114460444380392297989178285627
75,1.40385068948729459039221542387705
76,1.40652085332296463664107462364158
77,1.40915603780093322680186802763131
78,1.41175714818993888245458872314197
79,1.41432505504835578017821167865178
80,1.41686059597705863191626353616092
81,1.41936457726297932026614327596350
82,1.42183777542143701119069560403396
83,1.42428093864463473286086081810591
84,1.42669478816309111762223742017541
85,1.42908001952621672790456438745550
86,1.43143730380772852150356579494306
87,1.43376728874113854086548772269747
88,1.43607059979012953326806227158582
89,1.43834784115824670663108229722245
90,1.44059959674199160895983432954542
91,1.44282643103108266737496053200044
92,1.44502888995935862514228266878638
93,1.44720750170953886006170233231213
94,1.44936277747481163883551239026893
95,1.45149521218000020800818873862608
96,1.45360528516485479995314250449165
97,1.45569346083183429027299250616217
98,1.45776018926056836868473274123847
99,1.45980590679103761327315361238560
100,1.46183103657736251757925865125362
101,1.46383598911396321583677455226889
102,1.46582116273572607694879867263100
103,1.46778694409370542418385318566368
104,1.46973370860778137286124049973493
105,1.47166182089760170453795552164674
106,1.47357163519304493196684042789439
107,1.47546349572536362714014282643368
108,1.47733773710008784517881040980671
109,1.47919468465269988329401981357710
110,1.48103465478802919392241017451009
111,1.48285795530425040993880829307361
112,1.48466488570231800621677791743710
113,1.48645573748161558601377598495512
114,1.48823079442254902290168555382221
115,1.48999033285677224046130389639407
116,1.49173462192568608031154035186321
117,1.49346392382781899603790111978960
118,1.49517849405565727947919310433985
119,1.49687858162245881211609541049325
120,1.49856442927955849207042056460676
121,1.50023627372463521997990788146837
122,1.50189434580139141388133537860155
123,1.50353887069106383030314073419701
124,1.50517006809616678896026352127402
125,1.50678815241683933218179121040710
126,1.50839333292015265290448655956761
127,1.50998581390271354717928089388568
128,1.51156579484687705994892795268258
129,1.51313347057086941961697978399595
130,1.51468903137310397506141767000428
131,1.51623266317095744462906630901055
132,1.51776454763425880944676359908148
133,1.51928486231373140180055699330518
134,1.52079378076461746337806064253937
135,1.52229147266569633982525296753978
136,1.52377810393390379053974133199539
137,1.52525383683474658468025341785392
138,1.52671883008869294238112998337892
139,1.52817323897371727425579978293875
140,1.52961721542416222630603905634427
141,1.53105090812607647986356257084286
142,1.53247446260917868292511225741619
143,1.53388802133558923907249160787050
144,1.53529172378546450053353398051244
145,1.53668570653966372418070462007707
146,1.53807010335957128051455716468218
147,1.53944504526418840271338780245239
148,1.54081066060460980479773261867684
149,1.54216707513598696988562309115763
150,1.54351441208708174943619238681766
151,1.54485279222750618775869705379114
152,1.54618233393273887097758580826612
153,1.54750315324700675017006888705237
154,1.54881536394411633794027606042938
155,1.55011907758631251444586205997931
156,1.55141440358124280926355037443671
157,1.55270144923709820571969485885716
158,1.55398031981600228581211280515581
159,1.5552511185857123885806123241119
160,1.5565139468696991194897707682088
161,1.5577689040956627069691373325008
162,1.5590160878425456672375166639229
163,1.5602555938860966307360796812897
164,1.5614875162430399667929494324881
165,1.5627119472138998067644755894077
166,1.5639289774245289812698517623614
167,1.5651386958663901038689528650352
168,1.5663411899356314901271673287015
169,1.5675365454710029741888250391190
170,1.5687248467906513660078448070854
171,1.5699061767278357437295400440294
172,1.5710806166656004479155757747725
173,1.5722482465704411799782765659088
174,1.5734091450250000483753049995799
175,1.5745633892598235475337917569889
176,1.5757110551842131758963874400316
177,1.5768522174162019536655777233031
178,1.5779869493116859946826699267509
179,1.5791153229927375774300204123961
180,1.5802374093751306615973439827359
181,1.5813532781951014988423260131188
182,1.5824629980353720331759695388049
183,1.5835666363504591402928889363844
184,1.5846642594912939474300735387219
185,1.5857559327291730419263328342412
186,1.5868417202790625371499203728723
187,1.5879216853222787963448895520535
188,1.5889958900285612507611583112092
189,1.5900643955775610432095986689737
190,1.5911272621797611481717280470094
191,1.5921845490968471910681283972409
192,1.5932363146615453489419102543474
193,1.5942826162969456364590641218300
194,1.5953235105353239180636131158371
195,1.5963590530364805787019064902134
196,1.5973892986056095450728722817813
197,1.5984143012107120327830750320325
198,1.5994341139995691814443145156184
199,1.6004487893162864116292819540936
200,1.6014583787174234439451963936642
201,1.6024629329877209567063654665399
202,1.6034625021554372584222211904630
203,1.6044571355073056298858080452209
204,1.6054468816031239508334989881623
205,1.6064317882899865765952008206445
206,1.6074119027161714835437869420729
207,1.6083872713446885540814228276848
208,1.6093579399665032226811478692134
209,1.6103239537134412259290985804845
210,1.6112853570707859522829684892140
211,1.6122421938895757506242523755895
212,1.6131945073986114248484320766085
213,1.6141423402161782925057124484227
214,1.6150857343614977833011349538555
215,1.6160247312659077838083218407816
216,1.6169593717837856829778655989007
217,1.6178896962032180776077778244660
218,1.6188157442564261103548023523899
219,1.6197375551299497133533031183611
220,1.6206551674746032657007614174009
221,1.6215686194152005672355518269437
222,1.6224779485600663261092126322529
223,1.6233831920103277211242274848968
224,1.6242843863690010982769537463842
225,1.6251815677498763581932043748968
226,1.6260747717862025725442324376104
227,1.6269640336391834724380028377702
228,1.6278493880062846191387153256545
229,1.6287308691293594094125569204295
230,1.6296085108025986018924459441090
231,1.6304823463803051538863573803406
232,1.6313524087845047777048026664244
233,1.6322187305123872021699029863791
234,1.6330813436435942855332657069844
235,1.6339402798473481510670423906247
236,1.6347955703894290442627285603659
237,1.6356472461390065319357687821142
238,1.6364953375753257744193238700101
239,1.6373398747942543066032273653434
240,1.6381808875146914814148016483825
241,1.6390184050848448572706481933486
242,1.6398524564883763856353213676160
243,1.6406830703504224296489243186568
244,1.6415102749434893022501059474807
245,1.6423340981932286971004835379688
246,1.6431545676840955310785941310691
247,1.6439717106648895803280271034973
248,1.6447855540541884906228615040564
249,1.6455961244456671307742751110373
250,1.6464034481133136734143510537067
251,1.6472075510165403028021655140728
252,1.6480084588051913477885207336259
253,1.6488061968244539117864414931489
254,1.6496007901196706562502993284013
255,1.6503922634410586173433617855751
256,1.6511806412483341408178760982959
257,1.6519659477152503261120213979349
258,1.6527482067340434239879043252453
259,1.6535274419197949908323325568487
260,1.6543036766147101855993938766523
261,1.6550769338923125227343169226720
262,1.6558472365615598060956595810398
263,1.6566146071708800940550438913383
264,1.6573790680121331462291491029588
265,1.6581406411244958766792752166616
266,1.6588993482982739809243709746675
267,1.6596552110786429496183717059691
268,1.6604082507693185022170061322637
269,1.6611584884361607101641635884207
270,1.6619059449107075333596147605460
271,1.6626506407936470534881391238361
272,1.6633925964582223834061978409411
273,1.6641318320535766953355225011494
274,1.6648683675080355765274905017203
275,1.6656022225323305876249969646412
276,1.6663334166227623017361274897797
277,1.6670619690643103078952743127839
278,1.6677878989336819332329753299962
279,1.6685112251023111867036340871853
280,1.6692319662393000176270613362144
281,1.6699501408143097782681173162328
282,1.6706657671004003871299733826649
283,1.6713788631768204058227277860458
284,1.6720894469317451864679756388625
285,1.6727975360649698973341565464792
286,1.6735031480905534518876299772270
287,1.6742063003394184010039495607828
288,1.6749070099619031905753581048193
289,1.6756052939302714330484842006747
290,1.6763011690411789258995052122850
291,1.6769946519180962584766888865224
292,1.6776857590136898926169988575853
293,1.6783745066121656233206972911699
294,1.6790609108315694569207303015433
295,1.6797449876260479944218075341976
296,1.6804267527880759061132634922334
297,1.6811062219506404297344984789560
298,1.6817834105893922095085040063490
299,1.6824583340247592794786514998358
300,1.6831310074240259423395918620245
301,1.6838014458033769558017919977925
302,1.6844696640299091200318213971052
303,1.6851356768236074399252539545517
304,1.6857994987592894403789414446139
305,1.6864611442685190637410734397502
306,1.6871206276414894133252135931237
307,1.6877779630288715256425285491334
308,1.6884331644436366504945877312553
309,1.6890862457628481289235175017902
310,1.6897372207294232049101754772355
311,1.6903861029538683664835941562891
312,1.6910329059159857301534393042583
313,1.6916776429665518622051140693547
314,1.6923203273289708419422733269260
315,1.6929609721009008873483742131054
316,1.6935995902558559196511296388422
317,1.6942361946447796062636672056938
318,1.6948707979975972342221132902327
319,1.6955034129247425565893913313848
320,1.6961340519186596139963763007486
321,1.6967627273552834512002880670710
322,1.6973894514954958440496820261530
323,1.6980142364865595518748499230156
324,1.6986370943635300734476545938815
325,1.6992580370506466695150315832741
326,1.6998770763627008901815150310323
327,1.7004942240063854289625188903111
328,1.7011094915816204937998645705713
329,1.7017228905828626710129404820123
330,1.7023344324003927149960762235074
331,1.7029441283215837034021161656750
332,1.7035519895321506202348011693929
333,1.7041580271173817466041191117304
334,1.7047622520633500443975378690547
335,1.7053646752581088490580253732072
336,1.7059653074928679308086355451443
337,1.7065641594631527978803520645105
338,1.7071612417699483019467624325833
339,1.7077565649208226116440644632260
340,1.7083501393310376469289583613064
341,1.7089419753246416892900378766518
342,1.7095320831355466664403360996674
343,1.7101204729085897507838936529260
344,1.7107071547005792669121744312322
345,1.7112921384813267290421797740997
346,1.7118754341346624848055401391713
347,1.7124570514594385324089268083147
348,1.7130370001705153245766144401612
349,1.7136152898997361059377453377967
350,1.7141919301968863279745797466504
351,1.7147669305306402309496257957299
352,1.7153403002894942770409554409980
353,1.7159120487826867209682186890851
354,1.7164821852411047345365790195992
355,1.7170507188181794523813421689863
356,1.7176176585907671507486293355265
357,1.7181830135600198004539033489869
358,1.7187467926522442401702508475703
359,1.7193090047197457173939324890398
360,1.7198696585416647372653570621139
361,1.7204287628247989664272102736501
362,1.7209863262044166758955025428022
363,1.7215423572450563209833309407477
364,1.7220968644413172847630682025975
365,1.7226498562186400239868098283336
366,1.7232013409340744977473092587655
367,1.7237513268770397735711897615530
368,1.7242998222700716024241486377631
369,1.7248468352695625979836571158055
370,1.7253923739664907362451170280523
371,1.7259364463871390317304019287844
372,1.7264790604938053498097093539539
373,1.7270202241855023249637459703424
374,1.7275599452986516966595283244253
375,1.7280982316077637576736558182695
376,1.7286350908261133744387241002647
377,1.7291705306064043720627246294359
378,1.7297045585414254549586831008737
379,1.7302371821646995065091732660738
380,1.7307684089511230282403355259188
381,1.7312982463175985977511263290413
382,1.7318267016236574674771891125213
383,1.7323537821720769829572769733241
384,1.7328794952094877884189124118234
385,1.7334038479269744451633848118906
386,1.7339268474606701257272714595185
387,1.7344485008923411376134101044048
388,1.7349688152499652179477944260537
389,1.7354877975083042784345737739578
390,1.7360054545894687945235325840916
391,1.7365217933634741606718749954017
392,1.7370368206487926251399248939002
393,1.7375505432128982830231206841821
394,1.7380629677728037139539480370724
395,1.7385741009955911268459571149158
396,1.7390839494989376681828230166264
397,1.7395925198516345295612358775657
398,1.7400998185740998685698356445214
399,1.7406058521388841149205229979725
400,1.7411106269711719680701389677053
401,1.7416141494492771417190721022960
402,1.7421164259051306070421412098882
403,1.7426174626247651622193155519067
404,1.7431172658487942283722133308224
405,1.7436158417728823445725612731932
406,1.7441131965482134783724277978197
407,1.7446093362819542762058834451140
408,1.7451042670377097647092322352550
409,1.7455979948359743721001765912400
410,1.7460905256545807924043787765434
411,1.7465818654291409610832583731141
412,1.7470720200534827334452078110005
413,1.7475609953800833539372279190009
414,1.7480487972204961494758730851460
415,1.7485354313457747403532685476642
416,1.7490209034868912082072969422703
417,1.7495052193351510797002932131160
418,1.7499883845426022995804497517291
419,1.7504704047224424824064692372693
420,1.7509512854494194359287695192529
421,1.7514310322602289197223410670056
422,1.7519096506539089324266530865142
423,1.7523871460922283758363560541657
424,1.7528635240000737220425147452972
425,1.7533387897658300758271327364195
426,1.7538129487417602523981429085898
427,1.7542860062443793687374154359421
428,1.7547579675548249763127299679025
429,1.7552288379192266620395676979766
430,1.7556986225490679945456967979163
431,1.7561673266215483347979755574501
432,1.7566349552799416765017857830500
433,1.7571015136339478705532948117929
434,1.7575670067600473483863541693660
435,1.7580314397018471853245898684058
436,1.7584948174704264229174802602676
437,1.7589571450446788301912726755670
438,1.7594184273716521050346206291696
439,1.7598786693668842167911724934126
440,1.7603378759147379816768208097915
441,1.7607960518687310519470380724211
442,1.7612532020518649042084510173627
443,1.7617093312569524970252459114547
444,1.7621644442469392403999022978533
445,1.7626185457552266317406439278814
446,1.7630716404859896074152182180030
447,1.7635237331144948046439576634324
448,1.7639748282874129783490872937571
449,1.7644249306231334407870675944588
450,1.7648740447120727046311916552547
451,1.7653221751169848617861167444583
452,1.7657693263732665694542643416543
453,1.7662155029892624177375494991169
454,1.7666607094465670999868117849932
455,1.7671049502003280431596901650725
456,1.7675482296795438297199997485011
457,1.7679905522873631425217018872187
458,1.7684319224013806655503795186049
459,1.7688723443739324927246704251247
460,1.7693118225323907267219914913930
461,1.7697503611794551585787429738463
462,1.7701879645934452835900236047955
463,1.7706246370285913012723225814304
464,1.7710603827153223058771159068710
465,1.7714952058605556833902868831584
466,1.7719291106479848946410581666282
467,1.7723621012383649757374590916715
468,1.7727941817698008240140460506813
469,1.7732253563580308006716049749372
470,1.7736556290967132311340516449488
471,1.7740850040577101288176504773660
472,1.7745134852913725006762548177648
473,1.7749410768268226484668631044221
474,1.7753677826722410351384210542559
475,1.7757936068151467069638832657308
476,1.7762185532226838556922663276970
477,1.7766426258419049268412653331932
478,1.7770658286000550260838028746003
479,1.7774881654048565919739484709686
480,1.7779096401447948115367968399468
481,1.7783302566894024147091928099243
482,1.7787500188895475048721903024049
483,1.7791689305777198974069229261679
484,1.7795869955683188815931835655446
485,1.7800042176579439820916098062262
486,1.7804206006256834081323697190646
487,1.7808361482334071466923146169466
488,1.7812508642260594079571450409762
489,1.7816647523319537675345044518728
490,1.7820778162630689895844909521382
491,1.7824900597153477911390723416927
492,1.7829014863689972670009322223627
493,1.7833120998887910868694216477773
494,1.7837219039243747010817162060192
495,1.7841309021105718957703301410804
496,1.7845390980676960964305950691686
497,1.7849464954018622665451294225711
498,1.7853530977053035145084813391822
499,1.7857589085566900813748737789075
500,1.786163931521453022663705042137
501,1.786568170152108520908590826066
502,1.786971627988590483110619474975
503,1.787374308558583098921093987903
504,1.787776215377861420264065407234
505,1.788177351950633036361979451022
506,1.788577721769886810847023072913
507,1.788977328317746776237197766635
508,1.789376175065831084116466466115
509,1.789774265475614512078486326709
510,1.790171602998800863144217661269
511,1.790568191077698784237551214379
512,1.790964033145605213068777777936
513,1.791359132627195392738353341830
514,1.791753492938920469231097379286
515,1.792147117489413400812057684223
516,1.792540009679901761193620330141
517,1.792932172904628900572586374646
518,1.793323610551285657851202672049
519,1.793714326001449833773883656929
520,1.794104322631036730457366880665
521,1.794493603810758023047099360398
522,1.794882172906593733359161875305
523,1.795270033280274260795943941782
