Eigenstate,Potential Energy
1,0.500000000024102290095630095756162770
2,0.64623093780844172971514014920584030
3,0.73633761016711080649553233604620569
4,0.79966527877681226340880527992072710
5,0.8480465769530571699425651917574792
6,0.8870659994503606201733815278096292
7,0.9197208277068218995897241933585318
8,0.9477838480993532410133114331878494
9,0.9723835596342176705823507774241488
10,0.9942802164599790036674937522943008
11,1.0140093887176719908510804168370653
12,1.0319621717119242831107013625886068
13,1.0484326955085429676407243966254425
14,1.0636476577906730673134843968621110
15,1.0777854396729805979940328162256883
16,1.090988910572096552526410715257788
17,1.103374261668120632112536999608262
18,1.115037256910820391526132046554223
19,1.126057756123608705180077628232604
20,1.136503052637480148205555688856937
21,1.146430379372708159748877899416949
22,1.155888819997585184031289528852750
23,1.164920786864947343895401711030501
24,1.173563178412596622478354426269241
25,1.181848295959227278390020919119914
26,1.189804577512013619434001667702081
27,1.197457190729185860042088831271160
28,1.204828516279069979346296131911152
29,1.211938545042039675901457425997782
30,1.218805206952340946182890295028698
31,1.225444645130811314193269163881845
32,1.231871445881616154997729615745501
33,1.238098832816476751035794671516689
34,1.244138831619318454030433423112466
35,1.250002410625072259722454564627737
36,1.255699601352884224201423895777012
37,1.261239602329902602167043285995830
38,1.266630868911393844380889478655877
39,1.271881191305089942106478403293644
40,1.276997762611848822836883921658596
41,1.281987238377959227926679271813572
42,1.286855788899428901271610955153265
43,1.291609145312108573289863504853119
44,1.296252640333410208977178660726008
45,1.300791244383808419830165907764692
46,1.305229597703177656854914870514792
47,1.309572038983541189560385002285288
48,1.313822630962221511599720768134170
49,1.317985183354719269836115944599231
50,1.32206327345252509996507767155084
51,1.32606026466560178935960354093926
52,1.32997932325092897351144372737563
53,1.33382343343605245390072870074916
54,1.33759541111901909367447825133760
55,1.34129791630260275500633884735802
56,1.34493346440065217188791935399188
57,1.34850443653719268698576346788001
58,1.35201308894411659490941446322837
59,1.35546156155054288696282683105921
60,1.35885188584590268475088809523403
61,1.36218599208924242250968410949580
62,1.36546571592893583291698789724513
63,1.36869280448975390211997314123716
64,1.37186892197792947979604339634104
65,1.37499565484931839009068051635205
66,1.37807451658091155022283236909164
67,1.38110695208169031222319104054110
68,1.38409434177506108246268582652209
69,1.38703800538179260290219318517948
70,1.38993920542945100973084575541782
71,1.39279915051172908132953148841190
72,1.39561899831876784511663070055636
73,1.39839985845751570642981700140838
74,1.40114279507935141404517796003573
75,1.40384882933056607583209524339750
76,1.40651894163984988128720278350149
77,1.40915407385562678927279578946184
78,1.41175513124491464110493695593954
79,1.41432298436434133914439006322075
80,1.41685847081300960539908705236953
81,1.41936239687605349317033402795871
82,1.42183553906696837422146020315591
83,1.42427864557610739015799995114239
84,1.42669243763211306499239691976239
85,1.42907761078249349969256369182639
86,1.43143483609903670412430931335096
87,1.43376476131329915099782334071533
88,1.43606801188698125869268425037502
89,1.43834519202161900767438669165420
90,1.44059688561167767848610566053370
91,1.44282365714481224724873088046486
92,1.44502605255277067706307059047544
93,1.44720460001615408865250348292662
94,1.44935981072600486484624343254229
95,1.45149217960497258947438922793572
96,1.45360218599060589912947429303194
97,1.45569029428313398413967344572092
98,1.45775695455992860080404430541149
99,1.45980260315868398475113585281844
100,1.46182766323120571486616018677739
101,1.46383254526957027307747001875794
102,1.46581764760629147057202187441317
103,1.46778335689002199739656281289919
104,1.46973004853821108769096271564213
105,1.47165808716804621904310522851170
106,1.47356782700691600021112129831534
107,1.47545961228355331950329775240980
108,1.47733377760093858655159070163476
109,1.47919064829197430668057684609708
110,1.48103054075887980694852529401466
111,1.48285376279718907173882475326330
112,1.48466061390518521214649320635934
113,1.48645138557954955761041640638643
114,1.48822636159795460048564864941901
115,1.48998581828928957574750951283653
116,1.49173002479215912637100691371327
117,1.49345924330226379192233737238142
118,1.49517372930923002679368058252138
119,1.49687373182342374079614502560570
120,1.49855949359325551259081053147330
121,1.50023125131344735919355011021143
122,1.50188923582471203165651210807181
123,1.50353367230526361409719545898572
124,1.50516478045456052343733092681044
125,1.50678277466965244095074746221969
126,1.50838786421448750942177117093393
127,1.50998025338251555182935265767085
128,1.51156014165290048028223117639654
129,1.51312772384064299069231169593381
130,1.51468319024089625680618479574544
131,1.51622672676774193309666181134097
132,1.51775851508767879881536228124059
133,1.51927873274806459392345085312214
134,1.52078755330074032165879763028855
135,1.52228514642104818415531217158252
136,1.52377167802245062999981954325754
137,1.52524731036694468466836364329289
138,1.52671220217145212279308004232108
139,1.52816650871036393530530897931542
140,1.52961038191440209853222282356192
141,1.53104397046595709483437462018888
142,1.53246741989105156110453730666212
143,1.53388087264807179127870891236042
144,1.53528446821340163937348029749821
145,1.53667834316408918180457913965021
146,1.53806263125766862899066793810080
147,1.53943746350925177328041328622404
148,1.54080296826600430220748166018301
149,1.54215927127910877800386351781768
150,1.54350649577331792422477739368776
151,1.54484476251419413371454161171816
152,1.54617418987312549705823654632732
153,1.54749489389020730118726851343954
154,1.54880698833507289735496751249797
155,1.55011058476575217444857041403928
156,1.55140579258563550397392104577359
157,1.55269271909861420328908737732288
158,1.55397146956246933516074269373411
159,1.5552421472405725164490223763642
160,1.5565048534519650734310307417954
161,1.5577596876198740398542350633481
162,1.5590067473187244587915574728594
163,1.5602461283197028415677524852589
164,1.5614779246349264203225063772515
165,1.5627022285602667943981827705305
166,1.5639191307168784861112918732742
167,1.5651287200914796381975333925293
168,1.5663310840754275418142189793381
169,1.5675263085026340571609665807199
170,1.5687144776863606698047703183120
171,1.5698956744549333771404826843758
172,1.5710699801864152716149829959803
173,1.5722374748422722230159855337839
174,1.5733982370000675033099097900992
175,1.5745523438852193389319204524309
176,1.5756998714018510968513198619435
177,1.5768408941627673649199347509686
178,1.5779754855185850808699047136115
179,1.5791037175860461548768638180820
180,1.5802256612755425320576565074650
181,1.5813413863178763434587472070352
182,1.5824509612902828408909178027246
183,1.5835544536417391648541854237474
184,1.5846519297175831870590027549262
185,1.5857434547834642356369753966977
186,1.5868290930486466716303014642253
187,1.5879089076886901172270729380946
188,1.5889829608675217720264935677433
189,1.5900513137589245483911737062217
190,1.5911140265674566769306192807689
191,1.5921711585488220046336821923678
192,1.5932227680297073678183471326925
193,1.5942689124271053437114456098785
194,1.5953096482671357214051419996286
195,1.5963450312033836245123619742932
196,1.5973751160347679773840819556298
197,1.5983999567229546901720244559625
198,1.5994196064093287246780060767760
199,1.6004341174315378748057251944542
200,1.6014435413396222017761651973490
201,1.6024479289117401004856100293818
202,1.6034473301695043731178553339970
203,1.6044417943929389646928015558492
204,1.6054313701350679754132470512741
205,1.6064161052361469151219716943373
206,1.6073960468375492185664507938084
207,1.6083712413953138920967555938560
208,1.6093417346933685132015513759588
209,1.6103075718564333257100012779282
210,1.6112687973626179262588444821879
211,1.6122254550557179009812908724085
212,1.6131775881572216395400154829303
213,1.6141252392780317043924738619905
214,1.6150684504299157309722809510424
215,1.6160072630366860650115546810379
216,1.6169417179451220914550030035609
217,1.6178718554356392140013296594808
218,1.6187977152327134577151544740975
219,1.6197193365150649676385509902612
220,1.6206367579256129115229920681297
221,1.6215500175811996889644859384945
222,1.6224591530821016443002486672444
223,1.6233642015213198440908247571454
224,1.6242651994936659784784602780140
225,1.6251621831046459429568311475831
226,1.6260551879791446384853858204639
227,1.6269442492699206327871518437287
228,1.6278294016659124930216334041472
229,1.6287106794003639419684335261201
230,1.6295881162587725239501732413818
231,1.6304617455866635697494521231384
232,1.6313316002971998694246538846351
233,1.6321977128786220385130962433776
234,1.6330601154015357236711828748480
235,1.6339188395260388188352717956131
236,1.6347739165086983906550296566642
237,1.6356253772093809333095485601447
238,1.6364732520979376837001093845366
239,1.6373175712607504325820970116763
240,1.6381583644071399850351063058450
241,1.6389956608756415516012169893858
242,1.6398294896401499260227565658235
243,1.6406598793159384803333458251709
244,1.6414868581655536655185619494456
245,1.6423104541045893908370537593059
246,1.6431306947073438003493555893149
247,1.6439476072123598284193472259750
248,1.6447612185278571147219029953911
249,1.6455715552370502472512782112083
250,1.6463786436033637174299068268810
251,1.6471825095755414867236767829376
252,1.6479831787926539626572419607731
253,1.6487806765890074558266213225420
254,1.6495750279989557741599158792263
255,1.6503662577616178338493204586102
256,1.6511543903255013717151349033680
257,1.6519394498530391497397984804970
258,1.6527214602250340958245588036536
259,1.6535004450450201836129416015680
260,1.6542764276435394370791752752860
261,1.6550494310823353729324484320397
262,1.6558194781584676055627159845560
263,1.6565865914083464644084388245791
264,1.6573507931116930738979367940609
265,1.6581121052954234204902290903515
266,1.6588705497374585738461686930534
267,1.6596261479704642746601747371054
268,1.6603789212855199221499694751832
269,1.6611288907357212304015380904733
270,1.6618760771397122769918345373490
271,1.6626205010851562271237712036955
272,1.6633621829321387121155122067186
273,1.6641011428165113046363018656048
274,1.6648374006531722989840977989541
275,1.6655709761392886712621712715637
276,1.6663018887574574970844487475962
277,1.6670301577788143101008623412075
278,1.6677558022660801552678920572152
279,1.6684788410765588393097993173468
280,1.6691992928650764712177889261250
281,1.6699171760868711815912221393959
282,1.6706325090004305170703483773540
283,1.6713453096702797222879476592345
284,1.6720555959697180658560953522507
285,1.6727633855835100176301720382685
286,1.6734686960105273019757329478289
287,1.6741715445663468863110855550326
288,1.6748719483858013066823900949915
289,1.6755699244254859784163210975945
290,1.6762654894662242243589587791322
291,1.6769586601154878616220438077534
292,1.6776494528097762317241317579232
293,1.6783378838169575798821886448506
294,1.6790239692385678203495698009655
295,1.6797077250120687749256323439235
296,1.6803891669130734701784333296094
297,1.6810683105575284250860826306026
298,1.6817451714038622458288394545586
299,1.6824197647550973305685173186348
300,1.6830921057609264347988872118679
301,1.6837622094197545086833050708061
302,1.6844300905807078992907717085974
303,1.6850957639456080908372236492350
304,1.6857592440709135604397068229714
305,1.6864205453696311778883120370463
306,1.6870796821131964126334396302317
307,1.6877366684333195299403180966833
308,1.6883915183238052546372516952804
309,1.6890442456423419917211798889062
310,1.6896948641122609389651892375634
311,1.6903433873242686864287645642792
312,1.6909898287381508160017931310320
313,1.6916342016844478937287269351090
314,1.6922765193661056591853503939317
315,1.6929167948600987315487644708205
316,1.6935550411190292080012980626301
317,1.6941912709726976930711737684098
318,1.6948254971296521101533955338583
319,1.6954577321787114367710657369666
320,1.6960879885904643648335430310844
321,1.6967162787187468048241746218801
322,1.6973426148020943483467624258787
323,1.6979670089651732030682230775764
324,1.6985894732201885771954004057784
325,1.6992100194682722754653600136151
326,1.6998286595008477438739328799114
327,1.7004454050009753838961313081219
328,1.7010602675446753253919308122695
329,1.7016732586022326330536018451939
330,1.7022843895394813780592085447832
331,1.7028936716190690135068994215930
332,1.7035011160017021148518931051443
333,1.7041067337473738638822702368655
334,1.7047105358165714602373694953057
335,1.7053125330714677753813873697120
336,1.7059127362770933070644263438608
337,1.7065111561024913064971823260930
338,1.7071078031218571370713833413075
339,1.7077026878156579291134709370723
340,1.7082958205717386219916064270488
341,1.7088872116864101071343349316110
342,1.7094768713655219690901933263185
343,1.7100648097255194623979198777585
344,1.7106510367944847179539461310791
345,1.7112355625131639981924072516879
346,1.7118183967359784758521133957662
347,1.7123995492320221016694042441837
348,1.7129790296860433727012868800963
349,1.7135568476994145461835611023128
350,1.7141330127910858412448118870368
351,1.7147075343985267160605431916751
352,1.7152804218786539027929871334532
353,1.7158516845087454846757111624627
354,1.7164213314873424297002329127207
355,1.7169893719351379461693947074620
356,1.7175558148958528698876452224757
357,1.7181206693371003220143808016500
358,1.7186839441512388815691129316739
359,1.7192456481562100177153370830722
360,1.7198057900963687197310363844091
361,1.7203643786432990695228202322155
362,1.7209214223966212382732534724073
363,1.7214769298847845028232010660167
364,1.7220309095658513057729533524920
365,1.7225833698282705956592024971708
366,1.7231343189916393248670925038406
367,1.7236837653074549972788558163918
368,1.7242317169598560543782737049049
369,1.7247781820663547323478794462416
370,1.7253231686785581033252954487653
371,1.7258666847828801541195055257933
372,1.7264087383012438588583133530322
373,1.7269493370917732122746009242958
374,1.7274884889494795321030897211637
375,1.7280262016069327221497629905078
376,1.7285624827349289522420569748676
377,1.7290973399431465442631899153564
378,1.7296307807807932316742749684622
379,1.7301628127372466323190565649806
380,1.7306934432426846912683749975715
381,1.7312226796687089691329511083010
382,1.7317505293289578940070537691380
383,1.7322769994797146516973199170846
384,1.7328020973205046779297116895121
385,1.7333258299946863737820668401781
386,1.7338482045900357029863883272090
387,1.7343692281393204204289650257294
388,1.7348889076208678686374172713672
389,1.7354072499591270169302264881409
390,1.7359242620252219323247773391863
391,1.7364399506374969991328042066639
392,1.7369543225620574956090226010843
393,1.7374673845133030011269588361983
394,1.7379791431544522149667752011395
395,1.7384896050980620435742470341524
396,1.7389987769065406071461854064444
397,1.7395066650926537954361976236729
398,1.7400132761200253809021903075146
399,1.7405186164036292549726617331363
400,1.7410226923102780873758782704117
401,1.7415255101591044574373378302085
402,1.7420270762220352025482312004925
403,1.7425273967242618045303250516232
404,1.7430264778447047069725373031158
405,1.7435243257164690289706212733942
406,1.7440209464272977842896571766933
407,1.7445163460200197226553497898270
408,1.7450105304929892963532963726692
409,1.7455035058005216131990924859120
410,1.7459952778533248903431576177977
411,1.7464858525189246689131227347219
412,1.7469752356220833720693204268017
413,1.7474634329452162855175841377904
414,1.7479504502288003843111718812621
415,1.7484362931717802898889652635255
416,1.7489209674319677869690494526047
417,1.7494044786264377487694167563889
418,1.7498868323319176337783085682330
419,1.7503680340851748325708281128383
420,1.7508480893833968465794897934203
421,1.7513270036845682509881554142740
422,1.7518047824078437233369065467212
423,1.7522814309339149739639622927125
424,1.7527569546053751919942389482475
425,1.7532313587270773862199380484365
426,1.7537046485664902276978562631583
427,1.7541768293540488786786073197037
428,1.7546479062835008215390576852175
429,1.7551178845122506000905951881453
430,1.7555867691616963353521427192184
431,1.7560545653175655194261687209541
432,1.7565212780302472369749708129979
433,1.7569869123151161521771364677660
434,1.7574514731528593590838759364444
435,1.7579149654897939190317807311913
436,1.7583773942381829860841268319605
437,1.7588387642765486818514835355064
438,1.7592990804499807017375123457261
439,1.7597583475704413338945798532673
440,1.7602165704170679620832162235128
441,1.7606737537364702122680446621375
442,1.7611299022430253065762205065287
443,1.7615850206191712722929025597819
444,1.7620391135156926252434747542765
445,1.7624921855520078581998047542693
446,1.7629442413164497586376236638475
447,1.7633952853665457249910193750017
448,1.7638453222292912995832813061230
449,1.7642943564014247587148408179167
450,1.7647423923496949123264537724215
451,1.7651894345111296163076725204526
452,1.7656354872932978387743456469240
453,1.7660805550745710233626762134937
454,1.7665246422043801384631062134248
455,1.7669677530034720362413044094058
456,1.7674098917641604184193131326879
457,1.7678510627505761044978088513970
458,1.7682912701989129982892518569517
459,1.7687305183176722666599412079599
460,1.7691688112879043727971663186178
461,1.7696061532634468136977701538763
462,1.7700425483711607749018062089778
463,1.7704780007111653062132513217781
464,1.7709125143570671792853072960651
465,1.7713460933561903957775641086841
466,1.7717787417298024767519069877270
467,1.7722104634733368137946200171255
468,1.7726412625566160974755338066604
469,1.7730711429240692998110480080139
470,1.7735001084949497352413490259785
471,1.7739281631635484671979173629917
472,1.7743553107994073578420209194139
473,1.7747815552475271118453872769132
474,1.7752069003285778181744596794869
475,1.7756313498391009126014220917228
476,1.7760549075517150747141877369605
477,1.7764775772153163923890653587281
478,1.7768993625552774696804755861426
479,1.7773202672736443674774621218347
480,1.7777402950493317714734000843100
481,1.7781594495383149382881201534854
482,1.7785777343738219884926773780477
483,1.7789951531665219264976170411411
484,1.7794117095047112070211970586824
485,1.7798274069545003249755754919002
486,1.7802422490599950135245325192371
487,1.7806562393434788990556168713228
488,1.7810693813055922095111725778083
489,1.7814816784255097641372355352261
490,1.7818931341611161076516630315028
491,1.7823037519491799229882954634505
492,1.7827135352055263106767309327488
493,1.7831224873252069097357447063302
494,1.7835306116826689539885512611952
495,1.7839379116319214561605432216862
496,1.7843443905067017640444085788554
497,1.7847500516206381741139368989894
498,1.7851548982674125476982063161708
499,1.7855589337209204268938018947764
500,1.785962161235430780539998981856
501,1.786364584045741126119454664791
502,1.786766205367335482584435077812
503,1.787167028396536622052164398793
504,1.787567056310660464018591070019
505,1.787966292268165459365643188201
506,1.788364739408802694054709286060
507,1.788762400853764560334087513228
508,1.789159279705831635218857666715
509,1.789555379049515996925818664593
510,1.789950701951207032291055678165
511,1.790345251459312966035294293548
512,1.790739030604402011858582749668
513,1.791132042399341760885510317108
514,1.791524289839437483712065992250
515,1.791915775902569720133851759187
516,1.792306503549329366733066089742
517,1.792696475723151336898579958321
518,1.793085695350448578503854556119
519,1.793474165340743231025141398455
520,1.793861888586797778941583728156
521,1.794248867964742996485500910677
522,1.794635106334206959783563612906
523,1.795020606538441563385200799179
