Eigenstate,Potential Energy
1,0.500000000012591240910695812465643772
2,0.64623093773330368058689569232742291
3,0.73633760994639921999561240124843409
4,0.79966527831709628598385141277344222
5,0.8480465761567373518699305746663975
6,0.8870659982181308835936873644336515
7,0.9197208259385770692188253431933700
8,0.9477838456945679012763677031040587
9,0.9723835564921226829788117547204804
10,0.9942802124796514181460492925449538
11,1.0140093837980841872478017862970313
12,1.0319621657519723370449309150062464
13,1.0484326884070637063222221108106716
14,1.0636476494464546165673588432246788
15,1.0777854299847690028494716203327686
16,1.090988899438599931596836113908631
17,1.103374248988011727919624730428590
18,1.115037242582738045280944206247704
19,1.126057740046158590843893870698480
20,1.136503034709234984192358533059473
21,1.146430359492207544395479314287233
22,1.155888798063335154896498850470417
23,1.164920762775419730835216418436839
24,1.173563152066228244311239858146943
25,1.181848267254419019230860009223947
26,1.189804546347129411230122482134842
27,1.197457157002551591099025316596760
28,1.204828479888972343789575336232431
29,1.211938505886724975496547965713124
30,1.218805164930013853336410162721182
31,1.225444600139633603018493568126581
32,1.231871397819705405862993211554245
33,1.238098781581905032897381196537530
34,1.244138777110110987991260849372999
35,1.250002352739206066589270973224007
36,1.255699539988286758289211748351889
37,1.261239537384450373185310319644518
38,1.266630800282911028907008773329039
39,1.271881118891346985887115551788606
40,1.276997686310561034945406459364318
41,1.281987158086785367631421763612714
42,1.286855704515969758328521543774380
43,1.291609056733905542256970735072037
44,1.296252547457943858052476028104679
45,1.300791147108497054634954078012436
46,1.305229495925375879518299526476779
47,1.309571932600538453405069686838048
48,1.313822519871240671682453564870148
49,1.317985067452915129556657879280284
50,1.32206315263698295392403849245018
51,1.32606013883333596261693799394846
52,1.32997919229888135737301192615911
53,1.33382329726109103833940340612951
54,1.33759526961793649647425129846378
55,1.34129776937211474770233851895366
56,1.34493331193739620256176282637198
57,1.34850427843772639996398054333632
58,1.35201292510491634740242344279243
59,1.35546139186800226267307515732074
60,1.35885171021633100447090815601430
61,1.36218581040886325172396132870394
62,1.36546552809388548641544564609696
63,1.36869261039607994562554710021329
64,1.37186872152158922860407250392067
65,1.37499544792617740471358048440776
66,1.37807430308674212902980470003018
67,1.38110673191216998106134005073290
68,1.38409411482577108124292073768382
69,1.38703777154821636913055753085835
70,1.38993896460697265896356350116624
71,1.39279890259563188452776724228589
72,1.39561874320423270287508116602685
73,1.39839959603961962005137450121291
74,1.40114252525306595343232182860626
75,1.40384855199075584416413919987677
76,1.40651865668127097645120503260332
77,1.40915378117292526201466189328757
78,1.41175483073262494986611647472005
79,1.41432267591688480154848347813720
80,1.41685815432469284635175512502803
81,1.41936207224106688953494739183198
82,1.42183520617938449603210816118729
83,1.42427830432987943833070247422651
84,1.42669208792107330549462766240942
85,1.42907725250035169413049108899038
86,1.43143446913937853670655864711379
87,1.43376438556958465183390962394574
88,1.43606762725254322338371545085356
89,1.43834479838966141315310694424529
90,1.44059648287527409506280994941773
91,1.44282324519690424681909748894673
92,1.44502563128616623743349035720459
93,1.44720416932352599393803267792552
94,1.44935937049988910189587553822231
95,1.45149172973776674027790808687902
96,1.45360172637456752915979044027430
97,1.45568982481037902658408050141104
98,1.45775647512242973663754935737339
99,1.45980211364826901860455001391493
100,1.46182716353955594664135252733849
101,1.46383203528821886526179231242242
102,1.46581712722662181120356992685033
103,1.46778282600326605863165419713603
104,1.46972950703544777992477530880969
105,1.47165753494019974053419737965129
106,1.47356726394475418216016766343489
107,1.47545903827768596653607043639837
108,1.47733319254181581255592740061966
109,1.47919005206988486594669919974054
110,1.48102993326394942056183071724517
111,1.48285314391937874917392006570444
112,1.48465998353428956801093333423828
113,1.48645074360519512348633445131029
114,1.48822570790959813181712417519149
115,1.48998515277621635372122514987853
116,1.49172934734348125473744931188893
117,1.49345855380691848870449614479877
118,1.49517302765597791082984977148073
119,1.49687301790084711306320398721446
120,1.49855876728975663225397669042019
121,1.50023051251724671432833106737332
122,1.50188848442384660458827286459621
123,1.50353290818758514130343246130089
124,1.50516400350773374995746182744588
125,1.50678198478115336924787143196810
126,1.50838706127160164264057645609148
127,1.50997943727233613139402384581214
128,1.51155931226232671777787490028989
129,1.51312688105637829397312571730003
130,1.51468233394944645027326441766120
131,1.51622585685541347208800350292499
132,1.51775763144057697805028645226656
133,1.51927783525209174994341901468808
134,1.52078664184159402920615215605497
135,1.52228422088421944643118351427070
136,1.52377073829322206274218786300891
137,1.52524635633038869399076872885695
138,1.52671123371242907672426951401161
139,1.52816552571352032896968333861627
140,1.52960938426416871291063966868760
141,1.53104295804654714904454187699216
142,1.53246639258645885813975696968607
143,1.53387983034206885714356393020574
144,1.53528341078953785555448329969647
145,1.53667727050568891101363507740129
146,1.53806154324782933411871625774255
147,1.53943636003084212949826715923628
148,1.54080184920166230215056260118755
149,1.54215813651123982997709311398991
150,1.54350534518409294336355165737805
151,1.54484359598554762603728130315083
152,1.54617300728675363634567339204973
153,1.54749369512756599862319018348593
154,1.54880577327737586386282497142273
155,1.55010935329396897565787586020232
156,1.55140454458048960774996169522460
157,1.55269145444058101975916120240912
158,1.55397018813177424916960898693835
159,1.5552408489171889123759535527011
160,1.5565035381156123523003338030476
161,1.5577583551500156286707730150608
162,1.5590053975945658120322656756900
163,1.5602447612201894347598992273848
164,1.5614765400387417356388403236150
165,1.5627008263458302981987048215046
166,1.5639177107623435983610670489155
167,1.5651272822747316936893864927126
168,1.5663296282740817431246963211466
169,1.5675248345940334192676463904133
170,1.5687129855475739562923511128967
171,1.5698941639627530279227613554026
172,1.5710684512173553220992692230944
173,1.5722359272725662146361444026579
174,1.5733966707056663853535810027728
175,1.5745507587417893615871524807490
176,1.5756982672847716953972387122335
177,1.5768392709471290349856559597496
178,1.5779738430791872446853725321287
179,1.5791020557973950184388258299179
180,1.5802239800118489331333858718964
181,1.5813396854530535903497659614745
182,1.5824492406979445418783320942105
183,1.5835527131951970482467733229035
184,1.5846501692898449117646662275324
185,1.5857416742472311921776190764508
186,1.5868272922763117735197291084740
187,1.5879070865523355826308487611919
188,1.5889811192389168956222601187869
189,1.5900494515095234633473251611995
190,1.5911121435683961069206516574331
191,1.5921692546709190058030476419180
192,1.5932208431434570606199772701493
193,1.5942669664026786345256550625166
194,1.5953076809743770138589040523800
195,1.5963430425118085204124712442487
196,1.5973731058135609671781171819750
197,1.5983979248409668328503456292181
198,1.5994175527350753170295358870363
199,1.6004320418331961099395576793858
200,1.6014414436850288168204728636577
201,1.6024458090683890133747502762456
202,1.6034451880045443083778096969111
203,1.6044396297731710681346248411300
204,1.6054291829269434176433879063635
205,1.6064138953057644837779076040478
206,1.6073938140506528991851543916467
207,1.6083689856172904375230806169953
208,1.6093394557892450014428415381073
209,1.6103052696908747061426071147946
210,1.6112664717999245540915248151809
211,1.6122231059598230598797961197811
212,1.6131752153916890523165357187936
213,1.6141228427060530316627800622249
214,1.6150660299143080576828488530619
215,1.6160048184398893747381610757235
216,1.6169392491291967283735476207588
217,1.6178693622622633324310155488748
218,1.6187951975631804591333489171898
219,1.6197167942102809250658753670963
220,1.6206341908460939811765465960775
221,1.6215474255870695090762893496298
222,1.6224565360330887209972398594762
223,1.6233615592767549242319922095462
224,1.6242625319124794093439197061742
225,1.6251594900453650186828207209473
226,1.6260524692998909331384550566171
227,1.6269415048284073199699513814678
228,1.6278266313194416519019259543032
229,1.6287078830058238496221377358549
230,1.6295852936726349339084229221301
231,1.6304588966649809766388378224583
232,1.6313287248956027595889742173027
233,1.6321948108523161265040736846365
234,1.6330571866052991744947581694215
235,1.6339158838142194558392620237598
236,1.6347709337352108889430485696154
237,1.6356223672277039985651299195096
238,1.6364702147611112163042229508692
239,1.6373145064213726769062751553810
240,1.6381552719173646637914373542976
241,1.6389925405871749851296444132545
242,1.6398263414042481363952359689338
243,1.6406567029834042801532540204747
244,1.6414836535867337312930973701142
245,1.6423072211293713207992288711627
246,1.6431274331851531566052580103180
247,1.6439443169921571632954603155241
248,1.6447578994581349811861428220514
249,1.6455682071658301932805622651382
250,1.6463752663781932641960485963521
251,1.6471791030434910904682126533917
252,1.6479797428003139601250908028678
253,1.6487772109824849931272079164953
254,1.6495715326238717189233673190373
255,1.6503627324631036705444654380076
256,1.6511508349481960799947361315352
257,1.6519358642410860656776162187859
258,1.6527178442220777559075926159964
259,1.6534967984942031513511893845227
260,1.6542727503874991120941116867388
261,1.6550457229632007823843271122201
262,1.6558157390178561777756387973569
263,1.6565828210873607845511278529359
264,1.6573469914509176215768083399142
265,1.6581082721349212891103601626668
266,1.6588666849167681715945127181413
267,1.6596222513285960069642459572410
268,1.6603749926609528554639089398894
269,1.6611249299663997371704580906527
270,1.6618720840630426616440057818889
271,1.6626164755380033329389318700695
272,1.6633581247508225088164190292628
273,1.6640970518368034565494162032769
274,1.6648332767102927136140318679284
275,1.6655668190679020281231504791575
276,1.6662976983916697566307857354136
277,1.6670259339521692025972652310585
278,1.6677515448115556494388483858190
279,1.6684745498265635906063129835432
280,1.6691949676514462495380166800763
281,1.6699128167408652782904758296146
282,1.6706281153527281310943756166962
283,1.6713408815509763252621640357546
284,1.6720511332083217459621825106592
285,1.6727588880089378020993480263787
286,1.6734641634511014580276154458524
287,1.6741669768497912003647801888648
288,1.6748673453392373416652544605762
289,1.6755652858754293089946684007527
290,1.6762608152385806499129764143869
291,1.6769539500355495967860700415155
292,1.6776447067022180743117737717445
293,1.6783331015058330560144214054709
294,1.6790191505473053066018090489679
295,1.6797028697634675973091930408922
296,1.6803842749292999797693381253913
297,1.6810633816601120501129548961519
298,1.6817402054136915200301317077741
299,1.6824147614924158976273484205983
300,1.6830870650453290286623844129762
301,1.6837571310701829095717051585340
302,1.6844249744154468651995557455575
303,1.6850906097822812643342726123211
304,1.6857540517264793505575326833682
305,1.6864153146603786169095375929936
306,1.6870744128547409875663924462472
307,1.6877313604405989884793474868032
308,1.6883861714110753854009569689128
309,1.6890388596231723785597447647278
310,1.6896894387995306891262521750302
311,1.6903379225301621323696672286630
312,1.6909843242741531906334149865529
313,1.6916286573613409788753556850303
314,1.6922709349939634070421435508828
315,1.6929111702482828589170414845085
316,1.6935493760761847630797177218497
317,1.6941855653067485945790265802650
318,1.6948197506477966585601663383605
319,1.6954519446874177974043677893817
320,1.6960821598954660226357041672234
321,1.6967104086250379905255965432030
322,1.6973367031139254358220361239142
323,1.6979610554860460776391856803438
324,1.6985834777528519746428554976608
325,1.6992039818147170915092977754404
326,1.6998225794623023138797533692966
327,1.7004392823779007325626578751828
328,1.7010541021367603861740393798626
329,1.7016670502083894370707888283296
330,1.7022781379578402122388724991352
331,1.7028873766469735477087670163882
332,1.7034947774357044977180325247162
333,1.7041003513832297871545172864248
334,1.7047041094492351912817277505052
335,1.7053060624950871576567953083595
336,1.7059062212850047282707926828619
337,1.7065045964872146341349873420213
338,1.7071011986750906211429964949186
339,1.7076960383282730716936815348309
340,1.7082891258337750133926425633281
341,1.7088804714870702283877282068056
342,1.7094700854931659604656096398860
343,1.7100579779676598576763055926864
344,1.7106441589377811441702341943898
345,1.7112286383434178405595731825082
346,1.7118114260381275075764263826009
347,1.7123925317901350783637994902496
348,1.7129719652833145911010333273946
349,1.7135497361181583668657438046020
350,1.7141258538127311750502640106035
351,1.7147003278036114739142275431231
352,1.7152731674468194086159674381876
353,1.7158443820187308510788077093039
354,1.7164139807169788961468300154542
355,1.7169819726613431792918404243405
356,1.7175483668946252256387315640004
357,1.7181131723835130693322963922975
358,1.7186763980194343872315186014031
359,1.7192380526193938920550783856599
360,1.7197981449268039228825313116419
361,1.7203566836122999778657695739371
362,1.7209136772745476707364620763490
363,1.7214691344410357067087229890905
364,1.7220230635688599017571875222234
365,1.7225754730454964816241829295722
366,1.7231263711895635382124886274882
367,1.7236757662515735353613349152927
368,1.7242236664146736527218678061765
369,1.7247700797953786002652926071539
370,1.7253150144442916165868983356184
371,1.7258584783468165043033315056576
372,1.7264004794238596590105890348557
373,1.7269410255325220585069882675866
374,1.7274801244667855207492447160487
375,1.7280177839581839221001316751437
376,1.7285540116764708320722357041482
377,1.7290888152302753537671687224325
378,1.7296222021677493374107135366663
379,1.7301541799772078067743366291895
380,1.7306847560877593552367816426485
381,1.7312139378699293869101669807482
382,1.7317417326362733209895263792967
383,1.7322681476419844339757065995462
384,1.7327931900854913034610990632302
385,1.7333168671090484747210121417585
386,1.7338391857993210087513981852388
387,1.7343601531879586610763294812764
388,1.7348797762521636281102935853150
389,1.7353980619152525357469873453065
390,1.7359150170472098592656085380981
391,1.7364306484652330914800890863147
392,1.7369449629342732674918269153595
393,1.7374579671675683195162309393557
394,1.7379696678271678428626766468623
395,1.7384800715244521299233414907707
396,1.7389891848206451230207723292182
397,1.7394970142273209160040084427694
398,1.7400035662069038127096920426439
399,1.7405088471731605080607451675156
400,1.7410128634916886917415523784066
401,1.7415156214803981233506451760134
402,1.7420171274099849242281335468155
403,1.7425173875044019066787231131476
404,1.7430164079413228336608007933279
405,1.7435141948525980743672150839087
406,1.7440107543247077647129611986932
407,1.7445060923992095894301116377739
408,1.7450002150731786889444370811298
409,1.7454931282996425520907379118521
410,1.7459848379880134091254836101992
411,1.7464753500045123850346368044452
412,1.7469646701725889957059660365579
413,1.7474528042733370660052684772235
414,1.7479397580459034935817838377377
415,1.7484255371878941423451273924700
416,1.7489101473557732952264862429824
417,1.7493935941652595146905375768807
418,1.7498758831917150742139166156596
419,1.7503570199705332392215629668350
420,1.7508370099975183793824720229729
421,1.7513158587292628644278312345306
422,1.7517935715835200250734095147671
423,1.7522701539395710151656370215311
424,1.7527456111385891887548350302427
425,1.7532199484839983714344359696558
426,1.7536931712418286327649350648622
427,1.7541652846410670443901725387723
428,1.7546362938740034375117099160047
429,1.7551062040965750720864358825469
430,1.7555750204287030798300723219513
431,1.7560427479546281846575180703765
432,1.7565093917232428500505101701701
433,1.7569749567484151912255947417986
434,1.7574394480093157500148196013458
435,1.7579028704507349561085444836420
436,1.7583652289833991756250848281896
437,1.7588265284842835083509379235297
438,1.7592867737969203156894526225489
439,1.7597459697317041605953811626207
440,1.7602041210661942306816814213654
441,1.7606612325454114043232720009584
442,1.7611173088821335233761366715448
443,1.7615723547571885201780868233209
444,1.7620263748197400181732268162430
445,1.7624793736875747367889581772885
446,1.7629313559473827248844947994478
447,1.7633823261550375919088770706805
448,1.7638322888358699549385100611610
449,1.7642812484849419420673164656120
450,1.7647292095673149045584367878751
451,1.7651761765183178408188775168397
452,1.7656221537438093735123736577811
453,1.7660671456204390228482605326327
454,1.7665111564959041649615637071488
455,1.7669541906892062992214371209021
456,1.7673962524909019214324385299135
457,1.7678373461633526985996269286418
458,1.7682774759409713411181327674938
459,1.7687166460304656862755507614867
460,1.7691548606110806353729832566296
461,1.7695921238348357941523085633237
462,1.7700284398267620295421235492211
463,1.7704638126851355464548966571882
464,1.7708982464817076455026991842355
465,1.7713317452619341303276041380018
466,1.7717643130452014952041873508464
467,1.7721959538250491733900702945142
468,1.7726266715693928618249451370285
469,1.7730564702207413988340426882367
470,1.7734853536964147193350266712173
471,1.7739133258887571546134386175970
472,1.7743403906653503742360921689858
473,1.7747665518692213209617038526213
474,1.7751918133190526425992426519763
475,1.7756161788093845435245981137949
476,1.7760396521108205696165933542536
477,1.7764622369702276595632987850505
478,1.7768839371109351384812204181556
479,1.7773047562329315431848135295404
480,1.7777246980130596736396178364347
481,1.7781437661052084214257846107453
482,1.7785619641405049439498770602161
483,1.7789792957275025643518366843036
484,1.7793957644523672168110735678547
485,1.7798113738790639140758910817900
486,1.7802261275495378219567200889867
487,1.7806400289838967895113400480729
488,1.7810530816805899313542250847778
489,1.7814652891165854901332937036714
490,1.7818766547475458421621270384820
491,1.7822871820080017803500004194120
492,1.7826968743115246624737660784568
493,1.7831057350508963996560290666609
494,1.7835137675982783789417211088297
495,1.7839209753053775123192903248697
496,1.7843273615036126564553194613770
497,1.7847329295042770885086175211147
498,1.7851376825987009831196069547374
499,1.7855416240584113877364615307430
500,1.785944757135291826586950705056
501,1.786347085061737279141460387941
502,1.786748611050811988051569985990
503,1.787149338296401564489546713440
504,1.787549269973367234522062244001
505,1.787948409237695073775091973652
506,1.788346759226645960265261216289
507,1.788744323058904093208376001073
508,1.789141103834723717543879306961
509,1.789537104636072284840792447498
510,1.789932328526776103594416861899
511,1.790326778552661709758747921909
512,1.790720457741696857477913872626
513,1.791113369104129745519761234401
514,1.791505515632627155639608545513
515,1.791896900302411876938428554816
516,1.792287526071397626368952701296
517,1.792677395880322539946165742522
518,1.793066512652883019865095383774
519,1.793454879295864719287309729303
520,1.793842498699273521617259891523
521,1.794229373736463309314616529891
522,1.794615507264264798261209213950
523,1.795000902123111874657972321271
