Eigenstate,Potential Energy
1,0.500000000017679168359294147162636348
2,0.64623093776651496807563175864866497
3,0.73633761004395446281966055917885834
4,0.79966527852029204883129356268885551
5,0.8480465765087125185391136174895717
6,0.8870659987627783833366342208175473
7,0.9197208267201426702216778527950158
8,0.9477838467574826798079352594949618
9,0.9723835578809249274288507065425796
10,0.9942802142389468131876058206676418
11,1.0140093859725240184162315077847406
12,1.0319621683862408781356500959347896
13,1.0484326915458706058398378459188390
14,1.0636476531345301610285819425596092
15,1.0777854342668611155305603323756621
16,1.090988904359472261296475432816993
17,1.103374254592442446659347380101251
18,1.115037248915519121334771123451042
19,1.126057747152095389100724821305976
20,1.136503042633146097330568018576064
21,1.146430368278924790277656343543969
22,1.155888807757703695952922911519410
23,1.164920773422298284515297136730052
24,1.173563163710489362580928205952849
25,1.181848279940949421165140728900910
26,1.189804560120830356968670591465415
27,1.197457171908339288414732026332986
28,1.204828495971778380659527039646048
29,1.211938523191496773622714546117170
30,1.218805183501715138712064235307537
31,1.225444620023244890493879203001266
32,1.231871419060224495311038753997662
33,1.238098804224347515073954115243453
34,1.244138801199510758564699614668336
35,1.250002378320615847109434695586836
36,1.255699567106778623097894138834230
37,1.261239566085116281452849972928626
38,1.266630830610863361125559884999984
39,1.271881150891719084267778594717909
40,1.276997720028507747260613601266881
41,1.281987193567483594120433565347277
42,1.286855741804619001346358763165941
43,1.291609095875728458398399852027726
44,1.296252588498186812525016999901988
45,1.300791190092430677690032348514869
46,1.305229540898295624778971172321771
47,1.309571979607765157953294453895895
48,1.313822568958121117789552362863265
49,1.317985118664822607958032160411193
50,1.32206320601931782855403428804873
51,1.32606019443152623673233929551083
52,1.32997925015838324100441486486413
53,1.33382335742738951701895777627177
54,1.33759533213654590119620264115052
55,1.34129783428857932607966589856206
56,1.34493337929729069114814550271936
57,1.34850434828665659771548246516354
58,1.35201299748851969025779570838171
59,1.35546146683194839923548399656971
60,1.35885178780632237277734948845642
61,1.36218589067063565709163701851848
62,1.36546561107320868035705283004867
63,1.36869269613875820582776614258795
64,1.37186881007346193996562318226391
65,1.37499553933311964144107620002823
66,1.37807439739466523779126012962767
67,1.38110682916702216519865762509468
68,1.38409421507353798604599188460891
69,1.38703787483492166817679630845709
70,1.38993907097867864152771607268051
71,1.39279901209844004406782512463424
72,1.39561885588428432660094345725436
73,1.39839971194309637958370893813061
74,1.40114264442619049655975264812424
75,1.40384867447979238770754287902643
76,1.40651878253252590024445449763623
77,1.40915391043274770401170538928236
78,1.41175496344740740238475095848750
79,1.41432281213306370866163448481382
80,1.41685829408874920243746570968760
81,1.41936221559952683899666765662873
82,1.42183535317881993420122833125615
83,1.42427845501690861356356984582350
84,1.42669224234236142247660367531884
85,1.42907741070261151839988001913727
86,1.43143463116937100041148512758427
87,1.43376455147411946073547766638104
88,1.43606779707847946511900471923514
89,1.43834497218390816677176412750917
90,1.44059666068479104185120317507911
91,1.44282342706870228242618917660784
92,1.44502581726730808531276216030321
93,1.44720435946112682011996298574688
94,1.44935956484111713110563399587905
95,1.45149192832984387341309544306214
96,1.45360192926476996214317431268460
97,1.45569003204603787060645662937943
98,1.45775668675093163980595294576081
99,1.45980232971705678901121201168853
100,1.46182738409612917686889247740192
101,1.46383226038013455834027991946163
102,1.46581735690149500803520666076968
103,1.46778306030877046689891599513542
104,1.46972974601931640449802127639879
105,1.47165777865022551539480867580139
106,1.47356751242879060385541972648562
107,1.47545929158364772918204104021106
108,1.47733345071767944440483048927332
109,1.47919031516368936753517383555172
110,1.48103020132379690445677228876347
111,1.48285341699343508133257186619538
112,1.48466026167078501077204796328994
113,1.48645102685242498020930008940961
114,1.48822599631592339318606023992593
115,1.48998544639006434573114496235886
116,1.49172964621334628837968242329941
117,1.49345885798136251136864876513114
118,1.49517333718363115943969985319701
119,1.49687333283040876896398907626004
120,1.49855908766999547786865730473106
121,1.50023083839700179160048228922495
122,1.50188881585202787522937146060265
123,1.50353324521317414886238206297815
124,1.50516434617978428373029657839696
125,1.50678233314879213004568651434128
126,1.50838741538402891043380812488153
127,1.50997979717882643485130949259835
128,1.51155967801222950571781267249470
129,1.51312725269911860874734543877722
130,1.51468271153452560309932267139862
131,1.51622624043240972035070703161723
132,1.51775802105914620459015534736745
133,1.51927823096196814435106117100381
134,1.52078704369259077114147239423612
135,1.52228462892622939098641603220138
136,1.52377115257621842786781594407124
137,1.52524677690442575000355429567790
138,1.52671166062764283791666028590960
139,1.52816595902012924733998670752274
140,1.52960982401247437403346919356665
141,1.53104340428693497010110613443465
142,1.53246684536939878812768305569758
143,1.53388028971811607928606929022304
144,1.53528387680933349192878047935651
145,1.53667774321996072941856552293382
146,1.53806202270739245720173210131331
147,1.53943684628659974616197428236221
148,1.54080234230460638125913668972484
149,1.54215863651245183638301053016891
150,1.54350585213474455627514336018282
151,1.54484410993690145974779659492911
152,1.54617352829016396334456181783501
153,1.54749422323447947511053423250549
154,1.54880630853933225768781351020689
155,1.55010989576260189670247905355166
156,1.55140509430752724077900498621199
157,1.55269201147784685975809267369867
158,1.55397075253118783919142229785941
159,1.5552414207307665839188170380741
160,1.5565041173954679682375764678071
161,1.5577589419483613287550344972217
162,1.5590059919637127609957499367775
163,1.5602453632125485730327140345797
164,1.5614771497068245327075892912410
165,1.5627014437422495086276598543110
166,1.5639183359398140204982610206745
167,1.5651279152860709310801685137630
168,1.5663302691722109686554446040365
169,1.5675254834319781420623723455428
170,1.5687136423784647913851420173560
171,1.5698948288398264687290704588284
172,1.5710691241939545157092638116693
173,1.5722366084021417399533856197909
174,1.5733973600417770341024973979978
175,1.5745514563381029222128598202650
176,1.5756989731950657398814438024828
177,1.5768399852252917086024659723979
178,1.5779745657792180587210160695338
179,1.5791027869734056458993883169704
180,1.5802247197180640074648533548619
181,1.5813404337438115071947770886448
182,1.5824499976276982638941796754647
183,1.5835534788185149130093598335564
184,1.5846509436614114427832736578331
185,1.5857424574218479130454734081763
186,1.5868280843088980252254812771183
187,1.5879078874979293440563000085406
188,1.5889819291526756072517426888480
189,1.5900502704467248542143511750122
190,1.5911129715844390248175819947341
191,1.5921700918213242507796738615706
192,1.5932216894838682217970880465736
193,1.5942678219888629302498201335172
194,1.5953085458622261352248263012123
195,1.5963439167573394781794918788032
196,1.5973739894729169421075398090204
197,1.5983988179704180294904811775196
198,1.5994184553910198209754839733332
199,1.6004329540721607485949487915167
200,1.6014423655636700236885427363691
201,1.6024467406434936959062429604972
202,1.6034461293330307194035062064210
203,1.6044405809120896809103285412542
204,1.6054301439334778045354557330112
205,1.6064148662372321986175436268656
206,1.6073947949645063633199287966757
207,1.6083699765711178295942183236317
208,1.6093404568407711509171196082855
209,1.6103062808979619906277699803898
210,1.6112674932205738004644261668833
211,1.6122241376521744492565582001431
212,1.6131762574140230288942493776235
213,1.6141238951167912154625028119951
214,1.6150670927720141612237630943789
215,1.6160058918032701236730045824253
216,1.6169403330571027861156272286024
217,1.6178704568136902288032782617221
218,1.6187963027972695230702073348261
219,1.6197179101863202213986626346641
220,1.6206353176235192515337227539700
221,1.6215485632254651169296853030652
222,1.6224576845921886008858212141435
223,1.6233627188164435351948748908295
224,1.6242637024927926925945518599462
225,1.6251606717264913595564768928485
226,1.6260536621421721273453640756291
227,1.6269427088923395441866271158256
228,1.6278278466656764387334968644275
229,1.6287091096951690669686372530706
230,1.6295865317660557687683017371585
231,1.6304601462236009233831003940251
232,1.6313299859807046127396391958152
233,1.6321960835253429780508263431670
234,1.6330584709278554157839516167505
235,1.6339171798480717840695858390299
236,1.6347722415422893183024727629848
237,1.6356236868701028760439518293066
238,1.6364715463010902422192701270790
239,1.6373158499213579301715761650517
240,1.6381566274399496319708917487596
241,1.6389939081951215993074991695122
242,1.6398277211604878109003768810983
243,1.6406580949510389571736251182314
244,1.6414850578290369304167646969690
245,1.6423086377097891935188763814210
246,1.6431288621673055458231710314250
247,1.6439457584398386678662819459177
248,1.6447593534353160255349701179803
249,1.6455696737366581021342212098267
250,1.6463767456069933424656010947441
251,1.6471805949947677083210850016248
252,1.6479812475387516432854489265654
253,1.6487787285729495184434266493506
254,1.6495730631314112152418217551409
255,1.6503642759529497249290715255125
256,1.6511523914857648493319777734077
257,1.6519374338919793937070566902299
258,1.6527194270520842957181584856423
259,1.6534983945692994933838111726061
260,1.6542743597738509176916431507573
261,1.6550473457271639229298134900557
262,1.6558173752259778794604805342263
263,1.6565844708063807788148293822543
264,1.6573486547477693012604228598104
265,1.6581099490767328703659515684602
266,1.6588683755708638615933269573470
267,1.6596239557624971774465417206460
268,1.6603767109423792221737460909248
269,1.6611266621632705452190623036724
270,1.6618738302434778768456022232252
271,1.6626182357703248391632668964923
272,1.6633598991035553114025894994617
273,1.6640988403786768918258339209276
274,1.6648350795102416645697705379912
275,1.6655686361950681462762148292469
276,1.6662995299154026901391750885222
277,1.6670277799420278306590710052282
278,1.6677534053373093230279187800098
279,1.6684764249581933795903979115814
280,1.6691968574591461962266876055489
281,1.6699147212950436574603360716345
282,1.6706300347240087165396102703516
283,1.6713428158101996629186725152525
284,1.6720530824265464336539681490912
285,1.6727608522574417759562795638102
286,1.6734661428013832856238712048990
287,1.6741689713735713806277859745194
288,1.6748693551084596116052583289394
289,1.6755673109622619573054798555729
290,1.6762628557154178374947896340172
291,1.6769560059750126842415832810222
292,1.6776467781771569564673935652568
293,1.6783351885893275035185125928298
294,1.6790212533126663146525308803665
295,1.6797049882842387415647053015328
296,1.6803864092792587794937091926000
297,1.6810655319132713386114013584679
298,1.6817423716443008224276464891461
299,1.6824169437749628160452005209707
300,1.6830892634545406348474970482917
301,1.6837593456810271450340743909643
302,1.6844272053031339489136622481533
303,1.6850928570222651080604085605117
304,1.6857563153944589818398454839183
305,1.6864175948322996098077991327040
306,1.6870767096067969011789796745147
307,1.6877336738492328133153435848793
308,1.6883885015529809976597653397483
309,1.6890412065752960023770285208919
310,1.6896918026390723668455882659411
311,1.6903403033345772028994152578759
312,1.6909867221211537759494454460221
313,1.6916310723288974787298778261269
314,1.6922733671603060019400628664457
315,1.6929136196919030214214614348904
316,1.6935518428758367775085882596392
317,1.6941880495414510851556651484344
318,1.6948222523968341260807418291799
319,1.6954544640303421644859119283322
320,1.6960846969120981876087968422670
321,1.6967129633954693900362791804340
322,1.6973392757185196162081647826829
323,1.6979636460054402751466949938950
324,1.6985860862679587045482813326636
325,1.6992066084067257462151379000939
326,1.6998252242126807700499387012430
327,1.7004419453683969673657480913561
328,1.7010567834494041027026386657555
329,1.7016697499254936990057949921589
330,1.7022808561620030878282077824010
331,1.7028901134210797631302885682507
332,1.7034975328629270998972198334884
333,1.7041031255470318161080568967632
334,1.7047069024333713620585213600164
335,1.7053088743836055519488116929526
336,1.7059090521622484957663086455315
337,1.7065074464378237036877604249600
338,1.7071040677840034218313882120827
339,1.7076989266807282638442319333542
340,1.7082920335153132296432858962873
341,1.7088833985835358248665089638000
342,1.7094730320907087781613172657926
343,1.7100609441527369940779484598192
344,1.7106471447971587352532578872058
345,1.7112316439641728531968565019943
346,1.7118144515076495424531487431057
347,1.7123955771961281834758741459278
348,1.7129750307137990859170796358200
349,1.7135528216614726772337446820352
350,1.7141289595575336789304132293194
351,1.7147034538388823580201102104575
352,1.7152763138618625360471199986066
353,1.7158475489031756400283060475801
354,1.7164171681607822097679721412520
355,1.7169851807547912268092049378588
356,1.7175515957283354747891476058662
357,1.7181164220484361702221610749142
358,1.7186796686068561076975892626377
359,1.7192413442209370646167183581046
360,1.7198014576344304033738494619786
361,1.7203600175183126158370570120747
362,1.7209170324715922917150000433871
363,1.7214725110221031064098392149109
364,1.7220264616272878523370858047335
365,1.7225788926749717500669398489615
366,1.7231298124841239169444334531473
367,1.7236792293056098851866133528062
368,1.7242271513229319581739870655467
369,1.7247735866529620374702236670657
370,1.7253185433466626337338876471997
371,1.7258620293897989148207723225922
372,1.7264040527036407475447812596700
373,1.7269446211456546998026816179522
374,1.7274837425101903115315378721419
375,1.7280214245291513260581589892828
376,1.7285576748726633380461049722191
377,1.7290925011497296472403971479637
378,1.7296259109088784854110516657885
379,1.7301579116388034562871194703156
380,1.7306885107689939452355516670621
381,1.7312177156703583741104082947054
382,1.7317455336558374194321145053692
383,1.7322719719810118685476900105804
384,1.7327970378447000774623075460546
385,1.7333207383895486515859197038709
386,1.7338430807026170080366932707856
387,1.7343640718159515688254387205108
388,1.7348837187071535217072844283102
389,1.7354020282999408233729571303398
390,1.7359190074647016340720442165953
391,1.7364346630190395005943198947285
392,1.7369490017283138959708088877411
393,1.7374620303061735893660719645978
394,1.7379737554150814272420491142656
395,1.7384841836668333826502196552982
396,1.7389933216230715235027839486000
397,1.7395011757957905297139800693106
398,1.7400077526478377673287541412743
399,1.7405130585934054854125131573638
400,1.7410170999985194356423531050490
401,1.7415198831815199635010885329146
402,1.7420214144135363162732372961612
403,1.7425216999189569885646063314331
404,1.7430207458758939984167024166820
405,1.7435185584166385594435004352343
406,1.7440151436281142580063575882434
407,1.7445105075523248521287045535392
408,1.7450046561867941953262840818654
409,1.7454975954850011464110731844633
410,1.7459893313568119797285652499877
411,1.7464798696689045558276119571908
412,1.7469692162451878351335196881866
413,1.7474573768672178136646499651652
414,1.7479443572746063046194967816058
415,1.7484301631654268497775864755730
416,1.7489148001966141903281646427731
417,1.7493982739843601455946778278622
418,1.7498805901045030628719998471193
419,1.7503617540929151168689971649819
420,1.7508417714458824406594449326423
421,1.7513206476204820403056327873181
422,1.7517983880349547747376429557063
423,1.7522749980690722370094216276041
424,1.7527504830645011506362722137851
425,1.7532248483251616603541253614518
426,1.7536980991175831241206353026557
427,1.7541702406712548909673325091223
428,1.7546412781789720783698588911031
429,1.7551112167971802615028436579777
430,1.7555800616463119364638634937531
431,1.7560478178111222610984355979979
432,1.7565144903410212229187159118640
433,1.7569800842503975719895567693407
434,1.7574446045189456166967311538230
435,1.7579080560919827060475820830485
436,1.7583704438807652994709010054649
437,1.7588317727628017854610163720215
438,1.7592920475821610311057718293443
439,1.7597512731497773437773922470974
440,1.7602094542437529161741280719561
441,1.7606665956096549145393237908492
442,1.7611227019608107736775233847889
443,1.7615777779786013464362565884959
444,1.7620318283127465269966555541892
445,1.7624848575815926786036708792117
446,1.7629368703723928900568623032247
447,1.7633878712415872301011430481859
448,1.7638378647150762178894077855452
449,1.7642868552884953499921511438936
450,1.7647348474274828363644885762064
451,1.7651818455679480483340545480564
452,1.7656278541163335199268893745287
453,1.7660728774498762455709075913103
454,1.7665169199168646630939831344492
455,1.7669599858368949458560749451540
456,1.7674020795011219009812225094980
457,1.7678432051725091693631151547995
458,1.7682833670860751233060923050176
459,1.7687225694491369756925079938245
460,1.7691608164415527429840554181453
461,1.7695981122159589117468496230857
462,1.7700344608980070217142917827287
463,1.7704698665865977691232523909401
464,1.7709043333541107911922168943771
465,1.7713378652466341004400029705448
466,1.7717704662841902995045191146994
467,1.7722021404609588569399884733053
468,1.7726328917454994595948148184261
469,1.7730627240809689182286553903776
470,1.7734916413853391508698381142232
471,1.7739196475516105109805060696341
472,1.7743467464480247580012104279301
473,1.7747729419182730211365905617928
474,1.7751982377817062603348881385847
475,1.7756226378335371471746249785023
476,1.7760461458450458794214022175079
477,1.7764687655637802622084012981933
478,1.7768905007137547317860078012046
479,1.7773113549956472111797241665358
480,1.7777313320869941922930661920185
481,1.7781504356423825952840704348416
482,1.7785686692936419739561838521063
483,1.7789860366500324471131603166790
484,1.7794025412984311755841477501510
485,1.7798181868035188617463628361743
486,1.7802329767079608562878988169193
487,1.7806469145325897209423420301999
488,1.7810600037765838436293822747247
489,1.7814722479176453340479205873501
490,1.7818836504121750627123528956525
491,1.7822942146954469775772227967028
492,1.7827039441817802862975180634522
493,1.7831128422647094789913995196686
494,1.7835209123171532854007614797553
495,1.7839281576915807587988984330577
496,1.7843345817201777309168203841529
497,1.7847401877150093232575300003194
498,1.7851449789681824598972437115664
499,1.7855489587520058789377115598365
500,1.785952130319149772922205992413
501,1.786354496902800804063807195640
502,1.786756061716819949273175316906
503,1.787156827955894642914844390666
504,1.787556798795693060928538347815
505,1.787955977393013393575805712536
506,1.788354366885933836690613763668
507,1.788751970393961149247874216723
508,1.789148791018177416992473661019
509,1.789544831841383252797591477581
510,1.789940095928243486765177935309
511,1.790334586325428576917092309526
512,1.790728306061755640444073379469
513,1.791121258148327721018731378764
514,1.791513445578671968405224727349
515,1.791904871328877104432511912848
516,1.792295538357728385489589150064
517,1.792685449606841136102032505329
518,1.793074608000794638797298410729
519,1.793463016447263162023827537684
520,1.793850677837146982949106009857
521,1.794237595044700200186911732673
522,1.794623770927659612476260641055
523,1.795009208327371100291899808759
