Eigenstate,Potential Energy
1,0.500000000018127763655004625335949071
2,0.64623093776944316107993707176211442
3,0.73633761005255577841505864908948126
4,0.79966527853820756405862384966331049
5,0.8480465765397457621256651189464823
6,0.8870659988107993900290732942601243
7,0.9197208267890526128517820867506701
8,0.9477838468511991042128816349967689
9,0.9723835580033748727222996573725800
10,0.9942802143940633071386115323631087
11,1.0140093861642441616663212586568382
12,1.0319621686185047380556327990601987
13,1.0484326918226205511496026775179189
14,1.0636476534597104500688814323137590
15,1.0777854346444176375505288228167481
16,1.090988904793352373850530023104873
17,1.103374255086594875514609985701736
18,1.115037249473893902292348814083702
19,1.126057747778643838682472771650609
20,1.136503043331820803821526950888472
21,1.146430369053679619429452400677342
22,1.155888808612493807448592953789792
23,1.164920774361080156469585953699200
24,1.173563164737220822134700358774612
25,1.181848281059589679767833534367789
26,1.189804561335340049314696390309786
27,1.197457173222680514262626735000375
28,1.204828497389914748951312803105973
29,1.211938524717393448458283768657104
30,1.218805185139338886834678223143085
31,1.225444621776564130018481093849152
32,1.231871420933209345484149502358872
33,1.238098806220969846897452168052698
34,1.244138803323744246149308616346123
35,1.250002380576436019649801216196831
36,1.255699569498162917381557501052908
37,1.261239568616044094831540085806217
38,1.266630833285316104890101734422670
39,1.271881153713680237378173235235409
40,1.276997723001962910391173642307906
41,1.281987196696420543986591604427014
42,1.286855745093027745285277733789368
43,1.291609099327601289180034327103588
44,1.296252592117518363374015179870386
45,1.300791193883217977501961526587573
46,1.305229544864538153516939756259047
47,1.309571983753464902213207437333740
48,1.313822573287282626524058221145377
49,1.317985123181453048350759939389487
50,1.32206321072742704203702414374944
51,1.32606019933512679514068367410681
52,1.32997925526149050286307555093786
53,1.33382336273402168395754249475725
54,1.33759533765072407448818258777787
55,1.34129784001432756330312540461892
56,1.34493338523863606296567711295338
57,1.34850435444762924477129835026874
58,1.35201300387315288019052263421949
59,1.35546147344427858380545742653496
60,1.35885179465038924510752629841941
61,1.36218589775048220902151477085304
62,1.36546561839288125990921868830329
63,1.36869270370230657478690678018505
64,1.37186881788493933157001301977008
65,1.37499554739658281818672394747763
66,1.37807440571417454934904102644295
67,1.38110683774664160644488650374321
68,1.38409422391733525520701407633762
69,1.38703788394696822508827334812382
70,1.38993908036304976600937911198219
71,1.39279902175921489441455247796899
72,1.39561886582554599819110079423142
73,1.39839972216893196360575234148597
74,1.40114265494069113885816320784159
75,1.40384868528705334774921998123465
76,1.40651879363664661020674146379170
77,1.40915392183783182799327737854354
78,1.41175497515756289574063134413403
79,1.41432282415240287746365223987971
80,1.41685830642138876306150267126180
81,1.41936222824958797783807583890508
82,1.42183536615042836751983281800755
83,1.42427846831419464745970601691269
84,1.42669225596946001299965638833247
85,1.42907742466366233179082567768445
86,1.43143464546851847348096041282159
87,1.43376456611551286137892197750460
88,1.43606781206627295297044311336518
89,1.43834498752226085399782039658879
90,1.44059667637786705408695226998914
91,1.44282344312067081985447490680378
92,1.44502583368234348388862457463239
93,1.44720437624340861294183779699356
94,1.44935958199483010993500171985168
95,1.45149194585917815034427290576626
96,1.45360194717392103142495873229263
97,1.45569005033920667061734614820927
98,1.45775670543232461518467466713506
99,1.45980234879088595294431976701179
100,1.46182740356661217353718461174884
101,1.46383228025149472552582827539450
102,1.46581737717796143989077635176625
103,1.46778308099457807688158390447472
104,1.46972976711870598846880916152942
105,1.47165780016744381488615190903788
106,1.47356753436809036950831629069998
107,1.47545931394928778435472628725172
108,1.47733347351392474895484612143846
109,1.47919033839481108177669544152547
110,1.48103022499407245329509122936870
111,1.48285344110714821857761743909013
112,1.48466028623222588363286486839006
113,1.48645105186589019397139371874050
114,1.48822602178571607607354130373048
115,1.48998547232049421395561791575224
116,1.49172967260872971137782260411827
117,1.49345888484602257723043789137617
118,1.49517336452189774052928800756668
119,1.49687336064661858773516948919648
120,1.49855911596849217287694966699068
121,1.50023086718213598371383692248090
122,1.50188884512815723403950116374302
123,1.50353327498466345929875966133657
124,1.50516437645100551287885619716898
125,1.50678236392412449417427664603199
126,1.50838744666785894222646444956624
127,1.50997982897554805085341730448086
128,1.51155971032624407399424595102628
129,1.51312728553483501675568012059631
130,1.51468274489636032578022997024233
131,1.51622627432478688843764774561838
132,1.51775805548649767314050575566537
133,1.51927826592873356150081861927094
134,1.52078707920321764708568805344261
135,1.52228466498517316718752874388262
136,1.52377118918794254649405851675217
137,1.52524681407340172359962618576878
138,1.52671169835835031930887747899393
139,1.52816599731705609977811068716589
140,1.52960986288011674157145346923922
141,1.53104344372979734821899176561672
142,1.53246688539199409459690440214333
143,1.53388033032496572528042870244286
144,1.53528391800496745338337175698929
145,1.53667778500891761863893850514650
146,1.53806206509421959472560356564954
147,1.53943688927585323287579997563545
148,1.54080238590085117077186804439602
149,1.54215868072026180765939296129591
150,1.54350589695870258653091429324544
151,1.54484415538159949760912171492866
152,1.54617357436020310227414712972017
153,1.54749426993447002710276069354855
154,1.54880635587389382723534418567955
155,1.55010994373636345503674344544152
156,1.55140514292512720038700200083930
157,1.55269206074393314917798217012991
158,1.55397080245041797808936002236263
159,1.5552414713078077584495179967600
160,1.5565041686349971066911181212642
161,1.5577589938550651774923833013197
162,1.5590060445422879606755796247023
163,1.5602454164677017351320296180258
164,1.5614772036432723163387305136912
165,1.5627014983647186976542477795487
166,1.5639183912530416009526880730105
167,1.5651279712948041688852291801811
168,1.5663303258812074876527355291342
169,1.5675255408460060023500904656837
170,1.5687137005023025679679382226487
171,1.5698948876782633304826500891985
172,1.5710691837517903046623793570903
173,1.5722366686841870508899522268716
174,1.5733974210528532944865502068134
175,1.5745515180830424724390867142007
176,1.5756990356787119138540402820462
177,1.5768400484524989146451007019415
178,1.5779746297548518608206734598987
179,1.5791028517023428452869184245900
180,1.5802247852051927245350383032834
181,1.5813404999940312637687628654322
182,1.5824500646459200658271203998816
183,1.5835535466096613331461930760341
184,1.5846510122304167042654611789257
185,1.5857425267736579729716794347880
186,1.5868281544484706586690971658819
187,1.5879079584302342284427691116600
188,1.5889820008826944070986751821467
189,1.5900503429794513062374016081653
190,1.5911130449248790234051082898454
191,1.5921701659744959338392107904350
192,1.5932217644548020569766967080219
193,1.5942678977826018015373574954500
194,1.5953086224838254299282692272028
195,1.5963439942118671742913842514732
196,1.5973740677654536960567325986894
197,1.5983988971060572642842913093856
198,1.5994185353748678147354683481435
199,1.6004330349093367234894677412716
200,1.6014424472593062352653654315498
201,1.6024468232027355228284016993279
202,1.6034462127610367535916824370337
203,1.6044406652140318180950365690724
204,1.6054302291145413352223493638639
205,1.6064149523026158994691683858918
206,1.6073948819194225889572590515952
207,1.6083700644207926048213720987349
208,1.6093405455904442633726403278719
209,1.6103063705528870838658954342511
210,1.6112675837860184674697908492355
211,1.6122242291334203263958071362993
212,1.6131763498163658903080318590441
213,1.6141239884455410679013961523259
214,1.6150671870324953393316402085657
215,1.6160059870008213857214223880280
216,1.6169404291970774101928365746530
217,1.6178705539014561094614593874813
218,1.6187964008382092684345688607396
219,1.6197180091858312507421043455225
220,1.6206354175870138933207127046568
221,1.6215486641583707073330859563012
222,1.6224577864999475827804395949717
223,1.6233628217045135576314731386120
224,1.6242638063666467107581352016041
225,1.6251607765916177352126845598727
226,1.6260537680040747297788173194554
227,1.6269428157565378516351181614702
228,1.6278279545377056403219340401151
229,1.6287092185805801651466778901297
230,1.6295866416704156822556434035187
231,1.6304602571524925906264247256196
232,1.6313300979397270958852457606492
233,1.6321961965201115674369853020489
234,1.6330585849640017349570938940441
235,1.6339172949312438953284267619130
236,1.6347723576781518287742031113313
237,1.6356238040643370442967050733813
238,1.6364716645593940854150238443984
239,1.6373159692494463317637688901188
240,1.6381567478435544499510087218552
241,1.6389940296799917750049152664271
242,1.6398278437323894783398051728969
243,1.6406582186157555529945349899046
244,1.6414851825923693043591323106639
245,1.6423087635775557194797559327210
246,1.6431289891453422334885080400547
247,1.6439458865339992749224737688198
248,1.6447594826514721704647179053076
249,1.6455698040806993776012005279500
250,1.6463768770848274292926080146135
251,1.6471807276123204900662494327361
252,1.6479813813019673214211755761900
253,1.6487788634877907281428121406363
254,1.6495731992038591417772611509298
255,1.6503644131890042206878121644930
256,1.6511525298914445514534753843869
257,1.6519375734733218423469490421229
258,1.6527195678151460529437585925716
259,1.6534985365201562627060602360225
260,1.6542745029185976642384380338066
261,1.6550474900719149942657543607738
262,1.6558175207768671270580753345820
263,1.6565846175695616801822005266884
264,1.6573488027294150827306637414050
265,1.6581100982830366305532893577636
266,1.6588685260080386955212778322692
267,1.6596241074367763013532819042919
268,1.6603768638600160990000263320952
269,1.6611268163305390107839259830163
270,1.6618739856666722667153290772765
271,1.6626183924557601162188936152800
272,1.6633600570575671941114949895252
273,1.6640989996076219832228558425479
274,1.6648352400204975819533818527090
275,1.6655687979930336516253594963989
276,1.6662996930074978212563659288040
277,1.6670279443346940330454316788350
278,1.6677535710370095824958464429182
279,1.6684765919714123556196557409951
280,1.6691970257923903560696801026239
281,1.6699148909548414110024347375361
282,1.6706302057169105519204351862129
283,1.6713429881427782829202449516175
284,1.6720532561053968928617678047657
285,1.6727610272891816186991971155300
286,1.6734663191926526846991662308197
287,1.6741691491310332768171846262896
288,1.6748695342387998539883993600564
289,1.6755674914721894443768833702799
290,1.6762630376116646590906851682429
291,1.6769561892643342642829441592977
292,1.6776469628663321965255148988623
293,1.6783353746851589272096238969223
294,1.6790214408219802128679003462311
295,1.6797051772138853185428129698451
296,1.6803865996361122997410635616464
297,1.6810657237042302746786755956738
298,1.6817425648762880035478234570664
299,1.6824171384549255776404928300160
300,1.6830894595894509689118763223590
301,1.6837595432778818513982395575611
302,1.6844274043689547873994945221809
303,1.6850930575640989515317584485370
304,1.6857565174193779701568059549602
305,1.6864177983474013046915204151110
306,1.6870769146192044419941775479299
307,1.6877338803660950737777967740826
308,1.6883887095814727434760041726937
309,1.6890414161226180498236520846107
310,1.6896920137124517422955153537037
311,1.6903405159412673033026342912262
312,1.6909869362684345302757048263510
313,1.6916312880240755103809826931363
314,1.6922735844107147921393925982335
315,1.6929138385049030735885217644700
316,1.6935520632588157826262591952247
317,1.6941882715018240881380669496818
318,1.6948224759420436931496505974452
319,1.6954546891678585515636742627191
320,1.6960849236494195097358643994608
321,1.6967131917401217918214240052744
322,1.6973395056780574433195715321042
323,1.6979638775874462468522903215852
324,1.6985863194800440873134834620875
325,1.6992068432565305283665407777322
326,1.6998254607078738375133978011097
327,1.7004421835166762804873545757616
328,1.7010570232584968741612804105001
329,1.7016699914031565728260210154096
330,1.7022810993160223195020189245038
331,1.7028903582592714008568902589899
332,1.7034977793931371669495661248372
333,1.7041033737771364943351242910312
334,1.7047071523712771765326379543896
335,1.7053091260372495567668438070414
336,1.7059093055395984610141932132339
337,1.7065077015468783035777938651062
338,1.7071043246327924240213134171993
339,1.7076991852773127199479116827645
340,1.7082922938677856669424417996319
341,1.7088836607000204392330982289139
342,1.7094732959793616282003675618286
343,1.7100612098217461965007762226404
344,1.7106474122547446614905973555907
345,1.7112319132185883272623768142013
346,1.7118147225671800400671625216281
347,1.7123958500690920324592677053163
348,1.7129753054085476678660951165640
349,1.7135530981863906304857496181874
350,1.7141292379210391028310289224536
351,1.7147037340494270185024551661550
352,1.7152765959279320725335814644966
353,1.7158478328332897736656301202523
354,1.7164174539634949530066383722374
355,1.7169854684386910943377225601409
356,1.7175518853020456958344795579412
357,1.7181167135206149022274097383538
358,1.7186799619861966513880394042461
359,1.7192416395161680804655434595877
360,1.7198017548543161294789981902895
361,1.7203603166716530872207807322517
362,1.7209173335672235610576266123722
363,1.7214728140688974662295191614102
364,1.7220267666341540586273620669917
365,1.7225791996508552474040375864683
366,1.7231301214380070650763503599759
367,1.7236795402465121871161911836579
368,1.7242274642599102897481457158294
369,1.7247739015951108784877436406680
370,1.7253188603031143005843885568573
371,1.7258623483697237946671991976201
372,1.7264043737162475340623950383820
373,1.7269449442001906304872103728068
374,1.7274840676159414065895135357757
375,1.7280217516954426288924775029885
376,1.7285580041088591573500980730916
377,1.7290928324652338007135146986345
378,1.7296262443131345451098121942254
379,1.7301582471412949956247169609713
380,1.7306888483792447876438681072021
381,1.7312180553979328433783700367377
382,1.7317458755103405917340227246914
383,1.7322723159720898261759091937187
384,1.7327973839820401642782512735053
385,1.7333210866828797302038864917681
386,1.7338434311617097187547714606679
387,1.7343644244506185903183132060067
388,1.7348840735272498334955193867869
389,1.7354023853153639700836709910440
390,1.7359193666853919915060842169568
391,1.7364350244549805436147724162243
392,1.7369493653895324682285395617011
393,1.7374623962027401748774814908270
394,1.7379741235571104238346324502398
395,1.7384845540644833772917925208193
396,1.7389936942865455695301405389672
397,1.7395015507353364259769484708451
398,1.7400081298737483392659485292594
399,1.7405134381160188680751704274619
400,1.7410174818282193586824442311012
401,1.7415202673287360381406424729264
402,1.7420218008887443242716383665166
403,1.7425220887326791732005387296942
404,1.7430211370386993575022979563777
405,1.7435189519391431403876284800248
406,1.7440155395209814549445724226441
407,1.7445109058262657051376689169564
408,1.7450050568525676917402674642358
409,1.7454979985534145242583318608242
410,1.7459897368387210333060645968909
411,1.7464802775752139434323166744007
412,1.7469696265868513889684061155939
413,1.7474577896552388519385948323978
414,1.7479447725200379458594596622352
415,1.7484305808793723293722750293161
416,1.7489152203902271793224640098325
417,1.7493986966688450717540764494953
418,1.7498810152911154340366211296260
419,1.7503621817929618466171346730473
420,1.7508422016707221763004546680059
421,1.7513210803815254932221557789407
422,1.7517988233436650530979961685838
423,1.7522754359369651808701614190515
424,1.7527509235031456694560698988779
425,1.7532252913461800729396905394935
426,1.7536985447326515010259762642444
427,1.7541706888921033993675596799274
428,1.7546417290173853294313225623473
429,1.7551116702649976602713042238709
430,1.7555805177554280342925651499809
431,1.7560482765734871106386057016852
432,1.7565149517686407356944805796792
433,1.7569805483553338785804542556553
434,1.7574450713133174295503859174328
435,1.7579085255879656849456828555387
436,1.7583709160905924196719457560411
437,1.7588322476987637085433904181395
438,1.7592925252566064785347704181098
439,1.7597517535751134732205283863180
440,1.7602099374324457005888461503151
441,1.7606670815742295240576038455312
442,1.7611231907138519603124929506115
443,1.7615782695327538316353568068524
444,1.7620323226807153920669454177716
445,1.7624853547761437580348328082097
446,1.7629373704063531677674755152248
447,1.7633883741278452386345687374190
448,1.7638383704665824405853948665673
449,1.7642873639182626261607678580202
450,1.7647353589485867694893208542316
451,1.7651823599935274173318962474544
452,1.7656283714595906934908469582686
453,1.7660733977240775996252500601806
454,1.7665174431353410013882923912855
455,1.7669605120130419237270496473812
456,1.7674026086484004523106931712567
457,1.7678437373044459367610013778386
458,1.7682839022162628915475813090222
459,1.7687231075912351084388193627705
460,1.7691613576092876228164718619014
461,1.7695986564231243835439947240674
462,1.7700350081584648394033158208675
463,1.7704704169142780458351252006379
464,1.7709048867630124528523821240417
465,1.7713384217508253428256956877963
466,1.7717710258978090488003147726039
467,1.7722027031982132338233306456814
468,1.7726334576206682468842202406892
469,1.7730632931084020321267798132759
470,1.7734922135794581158346991907033
471,1.7739202229269089382578949150363
472,1.7743473250190688278520476446010
473,1.7747735236997019687933566179943
474,1.7751988227882328657212315026280
475,1.7756232260799482284230418570010
476,1.7760467373462027902238865366476
477,1.7764693603346193930358080441273
478,1.7768910987692880150116727907102
479,1.7773119563509626301436783376652
480,1.7777319367572562943432980120818
481,1.7781510436428330088320140967102
482,1.7785692806395999295836488123141
483,1.7789866513568953027684382627075
484,1.7794031593816749459054965839248
485,1.7798188082786987515514623712085
486,1.7802336015907117982682217955085
487,1.7806475428386269176018731240337
488,1.7810606355217033135073894025930
489,1.7814728831177244622661099018665
490,1.7818842890831731558870556816888
491,1.7822948568534058231377285857374
492,1.7827045898428247162520378747371
493,1.7831134914450479381826857225257
494,1.7835215650330784042939209341571
495,1.7839288139594699308441679217255
496,1.7843352415564936945308070066582
497,1.7847408511363007484665219419527
498,1.7851456459910845396871976044825
499,1.7855496293932409253555021781111
500,1.785952804595527817973532062462
501,1.786355174831220205453368798194
502,1.786756743314268001033709467483
503,1.787157513239448190971320038552
504,1.787557487782519123645319835888
505,1.787956670100369787334110342118
506,1.788355063331169806544972694429
507,1.788752670594518004710319018371
508,1.789149494991589172993734978376
509,1.789545539605277275875346133895
510,1.789940807500341146529863562240
511,1.790335301723545902846461412390
512,1.790729025303803984057566329007
513,1.791121981252314423484701140824
514,1.791514172562701033632901589220
515,1.791905602211149877702813524985
516,1.792296273156544237678076461909
517,1.792686188340598153548981594815
518,1.793075350687990318879965196645
519,1.793463763106495114486533039642
520,1.793851428487113637047709457040
521,1.794238349704201517704344058273
522,1.794624529615597806667439612879
523,1.795009971062751360815597331641
