Eigenstate,Potential Energy
1,0.500000000017245253220797151273070981
2,0.64623093776368259956186918686528391
3,0.73633761003563462427353292849964228
4,0.79966527850296281912876619178027926
5,0.8480465764786948436011450379161195
6,0.8870659987163288828768688919114200
7,0.9197208266534878491516323081470277
8,0.9477838466668332110110702073964388
9,0.9723835577624823072304371908185955
10,0.9942802140889067521668499210211625
11,1.0140093857870782953751072141393883
12,1.0319621681615784109238213670295997
13,1.0484326912781780958410303201788056
14,1.0636476528199924922962755277979026
15,1.0777854339016616059159873643260757
16,1.090988903939792820613066611804453
17,1.103374254114463674383011029034333
18,1.115037248375420363762688624538321
19,1.126057746546054768590075735553555
20,1.136503041957340521848554712409464
21,1.146430367529529948771227274807539
22,1.155888806930894043310165233316282
23,1.164920772514247018755292266570033
24,1.173563162717368396149942792991360
25,1.181848278858929347699261466988637
26,1.189804558946080414523179643056107
27,1.197457170637027319906237265217552
28,1.204828494600070792084363790676306
29,1.211938521715558490482290014422690
30,1.218805181917709560977845503329879
31,1.225444618327333846371593926085344
32,1.231871417248568194008454743649815
33,1.238098802293104498734499002101150
34,1.244138799144837853496753426008207
35,1.250002376138668114415923822149819
36,1.255699564793709308791065858930357
37,1.261239563637076766123496330642177
38,1.266630828024003109223541861174518
39,1.271881148162185593040744956516126
40,1.276997717152446495389772247928541
41,1.281987190541037990085715336993421
42,1.286855738623930331547983737022541
43,1.291609092536935835057479228842071
44,1.296252584997427121382214808037017
45,1.300791186425838525518309731070666
46,1.305229537062003286723935576274200
47,1.309571975597902524712585517147095
48,1.313822564770815642640928225574302
49,1.317985114296199253644337120819574
50,1.32206320146549901403196104082395
51,1.32606018968863178379082534010319
52,1.32997924522253032075759323542889
53,1.33382335229469259627779542678878
54,1.33759532680311668872227709425767
55,1.34129782875052671872395032968866
56,1.34493337355072071987716101182719
57,1.34850434232767237352673646586838
58,1.35201299131322134998604080159001
59,1.35546146043643305125099669652819
60,1.35885178118668404257713339340308
61,1.36218588382296523278419610239646
62,1.36546560399359385804115295138167
63,1.36869268882328343486539918779771
64,1.37186880251820836814921557612325
65,1.37499553153416506005481698618710
66,1.37807438934808402656628992726927
67,1.38110682086888523716172888134842
68,1.38409420651991273226110194531504
69,1.38703786602187190237918984089706
70,1.38993906190226454464956651590673
71,1.39279900275471810865481864210244
72,1.39561884626930730111891919798711
73,1.39839970205291321261443951937884
74,1.40114263425684628088488713663467
75,1.40384866402732830427968255617014
76,1.40651877179297916204427778531053
77,1.40915389940215149979001350436771
78,1.41175495212179084028826677161095
79,1.41432280050845175974133648081019
80,1.41685828216116264403821774575936
81,1.41936220336498219802686478646816
82,1.42183534063332943028114174288137
83,1.42427844215648010205106211197368
84,1.42669222916299833736884133475267
85,1.42907739720031281510965381841693
86,1.43143461734013109841672636620877
87,1.43376453731392818610053162234435
88,1.43606778258332199288620921291672
89,1.43834495734976496322184968431448
90,1.44059664550763780663102565119086
91,1.44282341154450989054228019601834
92,1.44502580139204252898916889476653
93,1.44720434323074915051882709072149
94,1.44935954825158339990895782372395
95,1.45149191137710507426411225899289
96,1.45360191194477197194573576884363
97,1.45569001435472139068083346073634
98,1.45775666868423213689943187076715
99,1.45980231127090443616186003265962
100,1.46182736526644879412084376257056
101,1.46383224116284555330889291106278
102,1.46581733729251131632042454794749
103,1.46778304030400049234515355294324
104,1.46972972561466295929888369892393
105,1.47165775784158576004094699020909
106,1.47356749121205598692380854778361
107,1.47545926995470392696495379934897
108,1.47733342867240630037678372689247
109,1.47919029269796083165608943600747
110,1.48103017843348097230960988806599
111,1.48285339367439373309365729041830
112,1.48466023791887415001233236503852
113,1.48645100266349437252475482157408
114,1.48822597168581660465541292328066
115,1.48998542131461868119915581089255
116,1.49172962068839272956413597956138
117,1.49345883200272565478923861981059
118,1.49517331074712915416696705358234
119,1.49687330593185325418646868378873
120,1.49855906030519152027637226353193
121,1.50023081056174782258292048629961
122,1.50188878754211562788606150041280
123,1.50353321642438859482418557234112
124,1.50516431690790356978951988274406
125,1.50678230338958751459309304472486
126,1.50838738513326469970061999085747
127,1.50997976643225991895426594544802
128,1.51155964676561089450534312145971
129,1.51312722094819096744491002863391
130,1.51468267927502478775195707401330
131,1.51622620766006431306079623088950
132,1.51775798776967744854845985450971
133,1.51927819715108987865899736779873
134,1.52078700935600936542264172202174
135,1.52228459405964367978537067613948
136,1.52377111717531964483403478681479
137,1.52524674096489746185858817312028
138,1.52671162414516087820240067671986
139,1.52816592199036164994599743250898
140,1.52960978643108130650130685777965
141,1.53104336614956866670355096527050
142,1.53246680667170348272078727312137
143,1.53388025045572793793190782863222
144,1.53528383697788054528679402794016
145,1.53667770281506280490336479998026
146,1.53806198172466111090522326954802
147,1.53943680472163819453765215548963
148,1.54080230015300943256637279577994
149,1.54215859376980582188916836984285
150,1.54350580879662726121332604091983
151,1.54484406599888205402802384193862
152,1.54617348374780293201617096661950
153,1.54749417808332854857354401704774
154,1.54880626277493434165106542179991
155,1.55010984938049100188625231624693
156,1.55140504730322841235985838293841
157,1.55269196384687610655366173953023
158,1.55397070426905206258287370355905
159,1.5552413718329635065086322409329
160,1.5565040678574860622403814944558
161,1.5577588917656797441191165469719
162,1.5590059411318012532529120104132
163,1.5602453117268674308741357298394
164,1.5614770975628245052832820285309
165,1.5627013909353717325671433287888
166,1.5639182824654899466500712723205
167,1.5651278611397222509677499648426
168,1.5663302143492495406470141400563
169,1.5675254279278059172523066275195
170,1.5687135861884737391844135833387
171,1.5698947719593985021622796975065
172,1.5710690666184614164157466703744
173,1.5722365501269450828899024030530
174,1.5733973010622281119449769154733
175,1.5745513966495426694546778973636
176,1.5756989127928246566256489561182
177,1.5768399241046897840454087715193
178,1.5779745039355646943247842084451
179,1.5791027244019995782504547860500
180,1.5802246564141932308163185518343
181,1.5813403697027531956895404271943
182,1.5824499328447186934664365223970
183,1.5835534132888693829617331537046
184,1.5846508773803441970368821078361
185,1.5857423903845920610602527861468
186,1.5868280165106754625880371882748
187,1.5879078189339506727325475121247
188,1.5889818598181400555015868817919
189,1.5900502003368201961656290067976
190,1.5911129006943414996964782579421
191,1.5921700201461984817948045058084
192,1.5932216170188671346744329044579
193,1.5942677487291276714156268158353
194,1.5953084718028859896336813544526
195,1.5963438418935117867846120395157
196,1.5973739137997070189704323377156
197,1.5983987414829190785270251199546
198,1.5994183780843128523355056687118
199,1.6004328759413144946723204986825
200,1.6014422866037408547588419089462
201,1.6024466608495255353889721099284
202,1.6034460487000549587458343004187
203,1.6044404994351250940893425946836
204,1.6054300616075304621758427265123
205,1.6064147830572953817216423453971
206,1.6073947109255604766070223683794
207,1.6083698916681303144459870980182
208,1.6093403710686963979260717128714
209,1.6103061942517412517455209680155
210,1.6112674056951351007466025601173
211,1.6122240492424324982011572448131
212,1.6131761681148791313701964680598
213,1.6141238049231331822251780945028
214,1.6150670016787162190142026075092
215,1.6160057998051928248974932774134
216,1.6169402401490929181023667938253
217,1.6178703629905807226327707571660
218,1.6187962080538793619759972526687
219,1.6197178145174543487350657168402
220,1.6206352210239684783071010759776
221,1.6215484656900060288898389831735
222,1.6224575861155834651740606461153
223,1.6233626193934402065452564082369
224,1.6242636021181245190847755507095
225,1.6251605703948770879049276794216
226,1.6260535598483158077507157253588
227,1.6269426056309304347064305948464
228,1.6278277424313889091981612889852
229,1.6287090044826625024271252358328
230,1.6295864255699744724619203229260
231,1.6304600390385740192436852765501
232,1.6313298778013459474083983309758
233,1.6321959743462510224141179987009
234,1.6330583607436131660222339956228
235,1.6339170686532466622157249736205
236,1.6347721293314330723055962261224
237,1.6356235736377514793349977074652
238,1.6364714320417637927743427971801
239,1.6373157346295605490692037698887
240,1.6381565111101693614392653303304
241,1.6389937908218303002577061428946
242,1.6398276027381410599416324322749
243,1.6406579754740759431065053930045
244,1.6414849372918803502003643981274
245,1.6423085161068451477078072471316
246,1.6431287394929634334703064821431
247,1.6439456346884710808870769665983
248,1.6447592286012786425292152894404
249,1.6455695478142895816609925830923
250,1.6463766185906152157671835404616
251,1.6471804668786842714916019150561
252,1.6479811183172498488798858072597
253,1.6487785982402988665227310183926
254,1.6495729316818636438497141278493
255,1.6503641433807394999961427587999
256,1.6511522577851084540026655454439
257,1.6519372990570754170850323403388
258,1.6527192910771133210256108928385
259,1.6534982574484239855301286197965
260,1.6542742215012151102468605120497
261,1.6550472062968937044982861762677
262,1.6558172346321806794501379147436
263,1.6565843290431454525972925803082
264,1.6573485118091660147173084151759
265,1.6581098049568129838166355711089
266,1.6588682302636598130993355825495
267,1.6596238092620223654877986176176
268,1.6603765632426278876917969189532
269,1.6611265132582176530223648173248
270,1.6618736801270789963720089933075
271,1.6626180844365160245946776548618
272,1.6633597465462529811267721862892
273,1.6640986865917777072403933022459
274,1.6648349244876224082231561596154
275,1.6655684799305855993406387806915
276,1.6662993724028935092102938621428
277,1.6670276211753084238772127869974
278,1.6677532453101757255155953267469
279,1.6684762636644211282008547427715
280,1.6691966948924902035980995554270
281,1.6699145574492380853703311182501
282,1.6706298695927668485546699501226
283,1.6713426493872137763329680387933
284,1.6720529147054876707121425753469
285,1.6727606832319600143545910972645
286,1.6734659724651070082841580269763
287,1.6741687997201075447385733442291
288,1.6748691821313935169243724801201
289,1.6755671366551571137183964485165
290,1.6762626800718158318229906026750
291,1.6769558289884330462950886116466
292,1.6776465998410970243355890054567
293,1.6783350088972622880934049677974
294,1.6790210722580483633784110233661
295,1.6797048058604980014082807034706
296,1.6803862254798024591286167675172
297,1.6810653467314837698109704171509
298,1.6817421850735433206598153914722
299,1.6824167558085735402633905061449
300,1.6830890740858344464710725582328
301,1.6837591549032954661122234375131
302,1.6844270131096446194662972287566
303,1.6850926634062622425896168901022
304,1.6857561203491628250055320261103
305,1.6864173983509063912609469183694
306,1.6870765116824786895459460775630
307,1.6877334744751373693266187562302
308,1.6883883007222316264164937894562
309,1.6890410042809914047485753617868
310,1.6896915988742864899913487234065
311,1.6903400980923590899080504507656
312,1.6909865153945274145885662489610
313,1.6916308641108616492993382600052
314,1.6922731574438341242217693051030
315,1.6929134084699430007186487264655
316,1.6935516301413108497674551942577
317,1.6941878352872556611621184711842
318,1.6948220366158396347250632838122
319,1.6954542467153928950879560495633
320,1.6960844780560121312964571598775
321,1.6967127429910380801696781595281
322,1.6973390537585079678421597974448
323,1.6979634224825864235241082006815
324,1.6985858611749738426161988840719
325,1.6992063817362939611565694779113
326,1.6998249959574588788231981884643
327,1.7004417155210143512436298926326
328,1.7010565520024625408035261488858
329,1.7016695168715672008088187775744
330,1.7022806214936377246642776247666
331,1.7028898771307934986410825824034
332,1.7034972949432096194538965303844
333,1.7041028859903443551813852281915
334,1.7047066612321465335323008534117
335,1.7053086315302471723680833420238
336,1.7059088076491314105119201907798
337,1.7065072002572936110688990418530
338,1.7071038199283766960873397618164
339,1.7076986771422917770467060116632
340,1.7082917822863241724907915510346
341,1.7088831456562215263616655628220
342,1.7094727774572665241624159013721
343,1.7100606878053338447158013785817
344,1.7106468867279313412040752494004
345,1.7112313841652272708023892635805
346,1.7118141899710610476786375129134
347,1.7123953139139410846964266246451
348,1.7129747656780265355234952551339
349,1.7135525548640964820480167036333
350,1.7141286909905041094214750812244
351,1.7147031834941179563103139982216
352,1.7152760417312499226996245001432
353,1.7158472749785693196055671148759
354,1.7164168924340043751517524300042
355,1.7169849032176315622717266005980
356,1.7175513163725509578056298516216
357,1.7181161408657508720146880402324
358,1.7186793855889609924998063004731
359,1.7192410593594897876492509658839
360,1.7198011709210551075200182121061
361,1.7203597289445997270083147940809
362,1.7209167420290983128956301141746
363,1.7214722187023504103701700357865
364,1.7220261674217644730043521041834
365,1.7225785965751311725431409310243
366,1.7231295144813848661600299581611
367,1.7236789293913561131790614268636
368,1.7242268494885120299799471292775
369,1.7247732828896891156202063790918
370,1.7253182376458142613379443355666
371,1.7258617217426167972336933924928
372,1.7264037431013305325993521144037
373,1.7269443095793857565992296499195
374,1.7274834289710955077720188478872
375,1.7280211090083268039129413084641
376,1.7285573573611682885413795772245
377,1.7290921816385860831540856082434
378,1.7296255893890710126651025860279
379,1.7301575881012790438238166372080
380,1.7306881852046616933653006959745
381,1.7312173880700892813186721844229
382,1.7317452040104641476325552908886
383,1.7322716402813285067689726206314
384,1.7327967040814619039555288300559
385,1.7333204025534718943396771356200
386,1.7338427427843786036866096656322
387,1.7343637318061889199450080282476
388,1.7348833765964642524665206096486
389,1.7354016840788825335514560012051
390,1.7359186611237916514127628042108
391,1.7364343145487546314842179720998
392,1.7369486511190901744347478243518
393,1.7374616775484060243596427243533
394,1.7379734004991237482294531147231
395,1.7384838265829977834526986015946
396,1.7389929623616284044034259374398
397,1.7395008143469682378041519495896
398,1.7400073890018223350815858387931
399,1.7405126927403403674686621601905
400,1.7410167319285052437928956581853
401,1.7415195128846141998528052098779
402,1.7420210418797531045806886173653
403,1.7425213251382668037138156112408
404,1.7430203688382233940449365556687
405,1.7435181791118698936793574907674
406,1.7440147620460854173144312025854
407,1.7445101236828289732429307664462
408,1.7450042700195793852557198074946
409,1.7454972070097702005018018259410
410,1.7459889405632220977655658668742
411,1.7464794765465670561597614610795
412,1.7469688207836678668049862143889
413,1.7474569790560340665360605573570
414,1.7479439571032307174614490490977
415,1.7484297606232843163195416339895
416,1.7489143952730822632453353227833
417,1.7493978666687687384151450942716
418,1.7498801803861341497865226820826
419,1.7503613419610024304256969774054
420,1.7508413568896111673251142840124
421,1.7513202306289885138754048775909
422,1.7517979685973261675749722869662
423,1.7522745761743462490972556764159
424,1.7527500587016656964211101482691
425,1.7532244214831545533638127392324
426,1.7536976697852917593366918242878
427,1.7541698088375159249326496655167
428,1.7546408438325711070122298698350
429,1.7551107799268514956544904609513
430,1.7555796222407378750571999028599
431,1.7560473758589333620181451858505
432,1.7565140458307955714893631753720
433,1.7569796371706605470788945273024
434,1.7574441548581695544134705214737
435,1.7579076038385865610131481363636
436,1.7583699890231143036438375023434
437,1.7588313152892071044929322870147
438,1.7592915874808794182071363314634
439,1.7597508104090107910715993059081
440,1.7602089888516483035179215592258
441,1.7606661275543036557872557861247
442,1.7611222312302484603684604574721
443,1.7615773045608073888788676485016
444,1.7620313521956437927314098071937
445,1.7624843787530471282182590952180
446,1.7629363888202132103316483350039
447,1.7633873869535244644612077933261
448,1.7638373776788233941396365028222
449,1.7642863654916871053111101632883
450,1.7647343548576950395330392398711
451,1.7651813502126974191743090896395
452,1.7656273559630772459265384581933
453,1.7660723764860115956683610439341
454,1.7665164161297285985989440735296
455,1.7669594792137637284799451584000
456,1.7674015700292106979519684353177
457,1.7678426928389716555983208727405
458,1.7682828518780030806181507500663
459,1.7687220513535598889994475212377
460,1.7691602954454373934992015338338
461,1.7695975883062089671201212706435
462,1.7700339340614626230983514205622
463,1.7704693368100351151362862730872
464,1.7709038006242417187498192191412
465,1.7713373295501056624280044557531
466,1.7717699276075843392642644976662
467,1.7722015987907915795374124212265
468,1.7726323470682209998441353090108
469,1.7730621763829629054414560183899
470,1.7734910906529222702999632878044
471,1.7739190937710320619348811223211
472,1.7743461896054662085860122417626
473,1.7747723819998475596087183380972
474,1.7751976747734583430275817846498
475,1.7756220717214420429659957544418
476,1.7760455766150092107144641788381
477,1.7764681932016375423909268807935
478,1.7768899252052708991376935372524
479,1.7773107763265161591945288663576
480,1.7777307502428382963835512365993
481,1.7781498506087522358348744787923
482,1.7785680810560150556929386590004
483,1.7789854451938139147528755358032
484,1.7794019466089525257330450481304
485,1.7798175888660376510104102953373
486,1.7802323755076602055612978063517
487,1.7806463100545778158382873256961
488,1.7810593960058934310177209887114
489,1.7814716368392332146634931429761
490,1.7818830360109215797976959126998
491,1.7822935969561555015225399250041
492,1.7827033230891766952409048678729
493,1.7831122178034416353416688595045
494,1.7835202844717905082447922440234
495,1.7839275264466132921551267953888
496,1.7843339470600162077959852941043
497,1.7847395496239842254914280701890
498,1.7851443374305435736958737247750
499,1.7855483137519217461346965893019
500,1.785951481840707137867916376861
501,1.786353844930004056125233531062
502,1.786755406233590560899265211256
503,1.787156168946070603225312312248
504,1.787556136243028304783946994567
505,1.787955311281177226086101724746
506,1.788353697198510353118836390418
507,1.788751297114448650265634749983
508,1.789148114129987819242742736250
509,1.789544151327841494720293895418
510,1.789939411772586929640428443959
511,1.790333898510806401080625003270
512,1.790727614571228236628385072559
513,1.791120562964866076773853776031
514,1.791512746685157049551417203857
515,1.791904168708099231497837044199
516,1.792294831992386605083697928110
517,1.792684739479542587177690810092
518,1.793073894094053913750541691611
519,1.793462298743501662582805926024
520,1.793849956318692270801376985285
521,1.794236869693785342294156938226
522,1.794623041726422521025470630689
523,1.795008475257853867230291474180
