Eigenstate,Potential Energy
1,0.500000000014883493650893048521527575
2,0.64623093774826628551329076118850254
3,0.73633760999035054431079396261476896
4,0.79966527840864153266291004041614927
5,0.8480465763153116948706863093602285
6,0.8870659984635091548382856656979407
7,0.9197208262906929884060491412406883
8,0.9477838461734385830655523894147019
9,0.9723835571178134370663528374284997
10,0.9942802132722577955916217779219702
11,1.0140093847777221454895234686002342
12,1.0319621669387725420201181199136738
13,1.0484326898211680867901501821539930
14,1.0636476511080142145247268395250367
15,1.0777854319139426058015520754269765
16,1.090988901655553195900047274637182
17,1.103374251512916621508764295490517
18,1.115037245435772504533419975738765
19,1.126057743247506324903773633830296
20,1.136503038279085383268372416817907
21,1.146430363450755662931758342698977
22,1.155888802430781749687861134267148
23,1.164920767571971340155611977351280
24,1.173563157312097298133103488425273
25,1.181848272969823973348316228051699
26,1.189804552552294899999743887594221
27,1.197457163717708594855145665564396
28,1.204828487134358367955228350502369
29,1.211938513682584239112874059707255
30,1.218805173296597485250920981324343
31,1.225444609097199844358907089123458
32,1.231871407388519817714965261191875
33,1.238098791782240708326883700160821
34,1.244138787962248767723662570168176
35,1.250002364263434757790306552550580
36,1.255699552204903355997368942663359
37,1.261239550313760284027601274139152
38,1.266630813945228296795702665465358
39,1.271881133306994519447598042163371
40,1.276997701499870836467768043250815
41,1.281987174070098763372823243054152
42,1.286855721313637630021524940703988
43,1.291609074366288559702133140859844
44,1.296252565945412712692579582944276
45,1.300791166471432694024082767793583
46,1.305229516184169742612172523907520
47,1.309571953775592706610099485359854
48,1.313822541982968445610302449988546
49,1.317985090521740756438921486423768
50,1.32206317668334220564835387121080
51,1.32606016387767628935148728789932
52,1.32997921836166212675124255262749
53,1.33382332436278377518094361685859
54,1.33759529777902512302157569216756
55,1.34129779861309582435583071704531
56,1.34493334227877916909849120782154
57,1.34850430990003381722782615931685
58,1.35201295770868413945522618748766
59,1.35546142563377995939822495949548
60,1.35885174516468198462235876695201
61,1.36218584656036498641500012505854
62,1.36546556546912978304275544789678
63,1.36869264901567319222514486094855
64,1.37186876140615263863664545124047
65,1.37499548909634726227757644582159
66,1.37807434556317003450136045641930
67,1.38110677571552309716079252772902
68,1.38409415997673237952823082136207
69,1.38703781806748487691851081397408
70,1.38993901251526370668006160140739
71,1.39279895191367735348897428894353
72,1.39561879395278127350154629459505
73,1.39839964823943702051761523503964
74,1.40114257892493520875465272556279
75,1.40384860715547752572982199488121
76,1.40651871335966345199224371948836
77,1.40915383938582494602980966868806
78,1.41175489050088655449487133275088
79,1.41432273726138158790104636524215
80,1.41685821726631687629909895705407
81,1.41936213680072927796331637075194
82,1.42183527237801566356642205929031
83,1.42427837218842936453146829467502
84,1.42669215746051178253309851869521
85,1.42907732374166858094693463085271
86,1.43143454210358401365660456057229
87,1.43376446027770947582805162471655
88,1.43606770372563898352514634509038
89,1.43834487664880078687914308063132
90,1.44059656294155110479526059767445
91,1.44282332709143451712901027815381
92,1.44502571503008725272577772467490
93,1.44720425493799735666155571095171
94,1.44935945800609279128463536891596
95,1.45149181915690737162906003824614
96,1.45360181772787261365424204807506
97,1.45568991811909923165552050615265
98,1.45775657040783914689578426891245
99,1.45980221093166539731909834006958
100,1.46182726284226099779128773648595
101,1.46383213663157849615788229606770
102,1.46581723063200639568880516231072
103,1.46778293149207070086629997372315
104,1.46972961462909257876214406457368
105,1.47165764466013005449336288954898
106,1.47356737581244089500189958158208
107,1.47545915231462575344830324769703
108,1.47733330876953140695511723430115
109,1.47919017050992532690147223280894
110,1.48103005393789040084535543386930
111,1.48285326684882276395147831729824
112,1.48466010874086626416921169303110
113,1.48645087111056154961097920881976
114,1.48822583773543900882515259024232
115,1.48998528494424434615492557831310
116,1.49172948187543724272642692739312
117,1.49345869072457184060256054455468
118,1.49517316698112675653349450326247
119,1.49687315965531861801843180574317
120,1.49855891149540727215829407667233
121,1.50023065919596255053474230732983
122,1.50188863359754356021816099175603
123,1.50353305987820927807523750243226
124,1.50516415773726154573810139075759
125,1.50678214157159199633389563160527
126,1.50838722064498924677607240771179
127,1.50997959925074211153232299610641
128,1.51155947686785200659415661289036
129,1.51312704831115563913504166808595
130,1.51468250387564069647674444064738
131,1.51622602947522184386543824685572
132,1.51775780677622936335832369560170
133,1.51927801332585098453763011456728
134,1.52078682267575618180988656006620
135,1.52228440450111410470594737561921
136,1.52377092471521262006691441324896
137,1.52524654557987263705740054738404
138,1.52671142581183827395710325785969
139,1.52816572068532131977595558746620
140,1.52960958213086299776988583703749
141,1.53104315883067148044428217345634
142,1.53246659631058553236510776141133
143,1.53388003702880600692841307327576
144,1.53528362046152974360189975076692
145,1.53667748318561622439322493532984
146,1.53806175895840947954867749587859
147,1.53943657879482952951993030648737
148,1.54080207104184869220324354797620
149,1.54215836145045455638113512314164
150,1.54350557324520326221944339023560
151,1.54484382719145900304882194539945
152,1.54617324166041004757515092430124
153,1.54749393269195023218662270903594
154,1.54880601405550982257330784787975
155,1.55010959730891398062515742963744
156,1.55140479185534670294441050166303
157,1.55269170499849127754829742990596
158,1.55397044199591907683544834471363
159,1.5552411061107903596214360836648
160,1.5565037986619334197531613139543
161,1.5577586190723605773930062920668
162,1.5590056649162804740441235817965
163,1.5602450319646615245861768222347
164,1.5614768142294011628864419015884
165,1.5627011040061494811738717879131
166,1.5639179919158377787348411272036
167,1.5651275669449592522199534274029
168,1.5663299164846445164453089726446
169,1.5675251263685770177488224546733
170,1.5687132809097880829871355668901
171,1.5698944629363717986038619375251
172,1.5710687538261575863969212297129
173,1.5722362335403758782856420297731
174,1.5733969806563527335614136164615
175,1.5745510723992673835247640230540
176,1.5756985846730024098314740439985
177,1.5768395920901198170549927086763
178,1.5779741680009921538311107127545
179,1.5791023845221151275004242017655
180,1.5802243125636326586172271410030
181,1.5813400218560970238806562289345
182,1.5824495809764917828430787157614
183,1.5835530573735405376392810123482
184,1.5846505173923257672420107752814
185,1.5857420262982395443366237071683
186,1.5868276483002871034036036227492
187,1.5879074465737670604755410817613
188,1.5889814832823437208521922001592
189,1.5900498195995352058302497360411
190,1.5911125157296330494914352400530
191,1.5921696309280724880662112849738
192,1.5932212235212698240409262657190
193,1.5942673509259451688205436612161
194,1.5953080696679439046931574808548
195,1.5963434354005747984180575794398
196,1.5973735029224784582996910373210
197,1.5983983261950405100304692019545
198,1.5994179583593636532432286351751
199,1.6004324517528114325884991025437
200,1.6014418579251376634972322867020
201,1.6024462276542124890074675215967
202,1.6034456109613584437658495876776
203,1.6044400571263071798857535598825
204,1.6054296147017884695231074015317
205,1.6064143315277614494816109723740
206,1.6073942547453011265438931057890
207,1.6083694308101460141537116851882
208,1.6093399055059211218534854013138
209,1.6103057239570420403043314156825
210,1.6112669306413116174872675227157
211,1.6122235694022165850416326143930
212,1.6131756834609343618623990226321
213,1.6141233154280544128438855534299
214,1.6150665073150291384530787725092
215,1.6160053005453535013567789392542
216,1.6169397359654873445526534186863
217,1.6178698538555243600392440292940
218,1.6187956939396166804673557659559
219,1.6197172953961583667012804570695
220,1.6206346968677402994099857898878
221,1.6215479364708743769704152910036
222,1.6224570518055042170404823004083
223,1.6233620799642959226250054048846
224,1.6242630575417239719247451163637
225,1.6251600206429547885028286856663
226,1.6260530048925315297012009494456
227,1.6269420454428687361451961186910
228,1.6278271769825586525271249005694
229,1.6287084337444963718037612245872
230,1.6295858495138284890356077434935
231,1.6304594576357270541218721494953
232,1.6313292910229992323352702353334
233,1.6321953821635276581443060636701
234,1.6330577631275576283719760136350
235,1.6339164655748243057738157666787
236,1.6347715207615296317863003318627
237,1.6356229595471725685549705792418
238,1.6364708124012344012355064682415
239,1.6373151094097245361293951918721
240,1.6381558802815889480523022696308
241,1.6389931543549855582644623985349
242,1.6398269606034293988935088671309
243,1.6406573276418115946026118226288
244,1.6414842837322938497195413067594
245,1.6423078567900828139165591245096
246,1.6431280743890868449874619530202
247,1.6439449637674565504859946429788
248,1.6447585518330166887581139662629
249,1.6455688651685843978618856531933
250,1.6463759300371841364737695102112
251,1.6471797723871572361862795761617
252,1.6479804178571688630899696820870
253,1.6487778917811174602357736472304
254,1.6495722191929463272276644964467
255,1.6503634248313612163680126575596
256,1.6511515331444540301151256201105
257,1.6519365682942390105902618929486
258,1.6527185541610978651856172661038
259,1.6534975143481406311164871630736
260,1.6542734721854826646147772207251
261,1.6550464507344380678137035481333
262,1.6558164727916342780483845019919
263,1.6565835608930466694517231618066
264,1.6573477373179586169961737591350
265,1.6581090240928455475061814071510
266,1.6588674429951851446711415820085
267,1.6596230155571969205880371125111
268,1.6603757630695111868300352998204
269,1.6611257065847716942373244753257
270,1.6618728669211676648514841090515
271,1.6626172646659044992267724399241
272,1.6633589201786071379593074149348
273,1.6640978535946635198252398097699
274,1.6648340848285053448220571455040
275,1.6655676335768300169689102899921
276,1.6662985193217620444945901272007
277,1.6670267613339613807034098659233
278,1.6677523786756704594426404822016
279,1.6684753902037114276162284286420
280,1.6691958145724256675903640474567
281,1.6699136702365634982941213034713
282,1.6706289754541215512631540920382
283,1.6713417482891310340527553500298
284,1.6720520066143940375353454438996
285,1.6727597681141746943225541694229
286,1.6734650502868412130372132876553
287,1.6741678704474638477059850454920
288,1.6748682457303652040283621604292
289,1.6755661930916275305660621320161
290,1.6762617293115577273595596961845
291,1.6769548709971079128919683457422
292,1.6776456345842544342862404319274
293,1.6783340363403392264900109711622
294,1.6790200923663685573420585530394
295,1.6797038185992712456451245178093
296,1.6803852308141239377843413877293
297,1.6810643446263333745956088661934
298,1.6817411754937849652147917254948
299,1.6824157387189544707424077208842
300,1.6830880494509845483062493702996
301,1.6837581226877265669367327899213
302,1.6844259732777497881642903417697
303,1.6850916159223150844444483649800
304,1.6857550651773167729165748821021
305,1.6864163354551939929993051100692
306,1.6870754410268108910191235101828
307,1.6877323960233027938219782961768
308,1.6883872144378958497929864062503
309,1.6890399101276962265461339501350
310,1.6896904968154492004269399185875
311,1.6903389880912717327273800353082
312,1.6909853974143560457417416898763
313,1.6916297381146455914091051876971
314,1.6922720233944852168122414699030
315,1.6929122663302448461723277681299
316,1.6935504798739180549781952699346
317,1.6941866768546930748513024686531
318,1.6948208699805015803879932944234
319,1.6954530718395423995373259551837
320,1.6960832949017801487692802203767
321,1.6967115515204227119640633740930
322,1.6973378539333736774496909721500
323,1.6979622142646632472237427454218
324,1.6985846445258565954949363764020
325,1.6992051566174414385220821948198
326,1.6998237623301930529732111842915
327,1.7004404733465195635567124730594
328,1.7010553012417846891154464897917
329,1.7016682574856129220385715130286
330,1.7022793534431735726532632912572
331,1.7028886003764451171690358962335
332,1.7034960094454609103945284421147
333,1.7041015917095366417605891953727
334,1.7047053581284777186512896516645
335,1.7053073195637708919536665729753
336,1.7059074867797561818559009591780
337,1.7065058704447819761179280634529
338,1.7071024811323443596445898545369
339,1.7076973293222067398462442654911
340,1.7082904254015058591050794594432
341,1.7088817796658399079026567914225
342,1.7094714023203412357360006529954
343,1.7100593034807332975892651449866
344,1.7106454931743718296457861917148
345,1.7112299813412720735525798489440
346,1.7118127778351195240098791938074
347,1.7123938924242677650221019253166
348,1.7129733347927202065119356795420
349,1.7135511145410992661999283933045
350,1.7141272411876005390678383346101
351,1.7147017241689340419874628754786
352,1.7152745728412522158579253716532
353,1.7158457964810639696079298866103
354,1.7164154042861361805173382507597
355,1.7169834053763830161204671248740
356,1.7175498087947412874583919151729
357,1.7181146235080350727034818478458
358,1.7186778584078288551424803664521
359,1.7192395223112649206421447523004
360,1.7197996239618939525022095306128
361,1.7203581720304905685503092778478
362,1.7209151751158602820650270734232
363,1.7214706417456324821265735476693
364,1.7220245803770444573752715117599
365,1.7225769993977146995321817244716
366,1.7231279071264043643383026462061
367,1.7236773118137697819104458689135
368,1.7242252216431028052300826692382
369,1.7247716447310636292989832333994
370,1.7253165891284017941247305465225
371,1.7258600628206682248339947493741
372,1.7264020737289172653813115148286
373,1.7269426297103986725577597867631
374,1.7274817385592438787680579807440
375,1.7280194080071372151348215490059
376,1.7285556457239835511347675639902
377,1.7290904593185641399665594070287
378,1.7296238563391838370509538130864
379,1.7301558442743115314541390194410
380,1.7306864305532105469880365040240
381,1.7312156225465618884126712898099
382,1.7317434275670774508993352963601
383,1.7322698528701078674053521128840
384,1.7327949056542399576496872518166
385,1.7333185930618873999329067788479
386,1.7338409221798752844422667255521
387,1.7343619000400142973658205087409
388,1.7348815336196684726008537909768
389,1.7353998298423171857286139004593
390,1.7359167955781085793467909689117
391,1.7364324376444047366853111815889
392,1.7369467628063222118665894876113
393,1.7374597777772653902807068882113
394,1.7379714892194512601554715111424
395,1.7384819037444284521772721490106
396,1.7389910279135901980128433474897
397,1.7394988682386808376221277211387
398,1.7400054311822958834790049355254
399,1.7405107231583742074728750899519
400,1.7410147505326866504303470778506
401,1.7415175196233171031584096348897
402,1.7420190367011368042066536578945
403,1.7425193079902746750699180680385
404,1.7430183396685815859019306148141
405,1.7435161378680860171661868845029
406,1.7440127086754472262396618953871
407,1.7445080581324030356698644716049
408,1.7450021922362097462601955268191
409,1.7454951169400770360411642622298
410,1.7459868381536003595862172435034
411,1.7464773617431851076705470503542
412,1.7469666935324661098426650479650
413,1.7474548393027235589484698276654
414,1.7479418047932917814334701841388
415,1.7484275957019651373661447303708
416,1.7489122176853974797951870840671
417,1.7493956763594980219079123078784
418,1.7498779772998207752059987969323
419,1.7503591260419518371900162142337
420,1.7508391280818895104551688628389
421,1.7513179888764212053612998992570
422,1.7517957138434964078596791227041
423,1.7522723083625935485963417851661
424,1.7527477777750843869960699524766
425,1.7532221273845922896660232693730
426,1.7536953624573480099384758998557
427,1.7541674882225404531606582720784
428,1.7546385098726624413978537644738
429,1.7551084325638553899154346613176
430,1.7555772614162457575230949164474
431,1.7560450015142807744123723157985
432,1.7565116579070605969788698139084
433,1.7569772356086622275022198716138
434,1.7574417395984662965971100237059
435,1.7579051748214745320850179609579
436,1.7583675461886258152518530553568
437,1.7588288585771089858360286147908
438,1.7592891168306713777850221618356
439,1.7597483257599237670586579978004
440,1.7602064901426428026658219740893
441,1.7606636147240680807599447048632
442,1.7611197042171974254121637340958
443,1.7615747633030800237290536758346
444,1.7620287966311020346574602023876
445,1.7624818088192740021058797368940
446,1.7629338044545110967018074517202
447,1.7633847880929133553238654305479
448,1.7638347642600391365790614241694
449,1.7642837374511796326989288818898
450,1.7647317121316265902640688505668
451,1.7651786927369407428191814940095
452,1.7656246836732137966941884116340
453,1.7660696893173297130702599260379
454,1.7665137140172216752060809697266
455,1.7669567620921283646625712591596
456,1.7673988378328448434906392310206
457,1.7678399455019727380543100710099
458,1.7682800893341661203497453682237
459,1.7687192735363756007096426711360
460,1.7691575022880902741992963961162
461,1.7695947797415753703926386377324
462,1.7700311100221088195413426304321
463,1.7704664972282153388700567413035
464,1.7709009454318961998661488282362
465,1.7713344586788586452602837201294
466,1.7717670409887420863563166560445
467,1.7721986963553403611870588063060
468,1.7726294287468250690969307369828
469,1.7730592421059624584082184295589
470,1.7734881403503313916707448846406
471,1.7739161273725366555608699112490
472,1.7743432070404219129994462513500
473,1.7747693831972776483494782105779
474,1.7751946596620516096442157859013
475,1.7756190402295506705571494910327
476,1.7760425286706466258758560724121
477,1.7764651287324762534312023416716
478,1.7768868441386403184253828130859
479,1.7773076785894004094969291254299
480,1.7777276357618740010570540764744
481,1.7781467193102262927245653647076
482,1.7785649328658623945981064215308
483,1.7789822800376152383137644914318
484,1.7793987644119320335923027884774
485,1.7798143895530607471015910956043
486,1.7802291590032311883751881551209
487,1.7806430762828375515162654210661
488,1.7810561448906170091198126808153
489,1.7814683683038275864574771697020
490,1.7818797499784231789135449428964
491,1.7822902933492278468156915270025
492,1.7827000018301079757055801262299
493,1.7831088788141422769139459476346
494,1.7835169276737907223340944993206
495,1.7839241517610606057402247823385
496,1.7843305544076729749207507119780
497,1.7847361389252251199934488091182
498,1.7851409086053530629994372844527
499,1.7855448667198915459379497755006
500,1.785948016521033647552286300225
501,1.786350361241485774713399348387
502,1.786751904094625483386004094318
503,1.787152648274653597104223611283
504,1.787552596956748466590673054322
505,1.787951753297215217777170547825
506,1.788350120433635718103230646876
507,1.788747701485017108904385014467
508,1.789144499551938543629775650245
509,1.789540517716694362556137342837
510,1.789935759043439757008033779111
511,1.790330226578332153930802098637
512,1.790723923349672220780401180387
513,1.791116852368043106234402658954
514,1.791509016626448592953655050436
515,1.791900419100450536459488879625
516,1.792291062748303800281410880668
517,1.792680950511089761933042280375
518,1.793070085312850174920157950783
519,1.793458470060718168543607838431
520,1.793846107645049242319356174010
521,1.794233000939549050063115082292
522,1.794619152801402249659351962248
523,1.795004566071398855491526396381
