Eigenstate,Potential Energy
1,0.500000000117607887186536876405846157
2,0.64623093841880033136019953381763189
3,0.73633761196000268788648453153606555
4,0.79966528251123768494169902440138741
5,0.8480465834219264399289320176482766
6,0.8870660094605117881039721052618324
7,0.9197208420716653421216884506572447
8,0.9477838676358107427162135845844150
9,0.9723835851613051516519048675400451
10,0.9942802487980927754829444399902034
11,1.0140094286882062080761323562685213
12,1.0319622201370571762535450795777836
13,1.0484327532111149681039442652604015
14,1.0636477255941178245813204236951594
15,1.0777855184012879136213647736795332
16,1.090989001049795370790861812551217
17,1.103374364720275085495329812358480
18,1.115037373363034609427960033305132
19,1.126057886802037667687817009661234
20,1.136503198368844812777812890306904
21,1.146430540984313675492324667810024
22,1.155888998317341382446294698944542
23,1.164920982721390939607860126603510
24,1.173563392634914721030014278201204
25,1.181848529377281899746359489813682
26,1.189804830956367023415988387960414
27,1.197457465031126514694648783389873
28,1.204828812270639052592677983520601
29,1.211938863556057959468929856486989
30,1.218805548822436141906300478857475
31,1.225445011191445628571052662998506
32,1.231871836968114159779491493332755
33,1.238099249765053476702846921329175
34,1.244139275267107690027613078400385
35,1.250002881810155040739473501933633
36,1.255700100914317486067717980930397
37,1.261240131107747994296341246017065
38,1.266631427746746688387772051476792
39,1.271881781040108328372333123065231
40,1.276998384089782838543744567576025
41,1.281987892443180311492958775497734
42,1.286856476397459319282159693781103
43,1.291609867089651016966225918258338
44,1.296253397238377508023204427243327
45,1.300792037265353372145402387783883
46,1.305230427411722973158385665092521
47,1.309572906370809552430169356774859
48,1.313823536881265748825596161020363
49,1.317986128659952642315486786000291
50,1.32206425899975170465699666370693
51,1.32606129131204707805642253889471
52,1.32998039185527038839868986594061
53,1.33382454485845018105906606767016
54,1.33759656622114693583763547599734
55,1.34129911594767912502909318113907
56,1.34493470945347120850194592117033
57,1.34850572786415549453071537829128
58,1.35201442741326260882473448649081
59,1.35546294803158136691302367262378
60,1.35885332121024433733639597930792
61,1.36218747721003115558698695399468
62,1.36546725168108064361734588511761
63,1.36869439174996090071595160454594
64,1.37187056162473405162049962184818
65,1.37499734776311749776465051830727
66,1.37807626364399617849661359568116
67,1.38110875417827805778023104746664
68,1.38409619979132889107862083732642
69,1.38703992020590965639220678913830
70,1.38994117795161176515673216062511
71,1.39280118162418646497584291490872
72,1.39562108891586660378043679255406
73,1.39840200943572591860405519992903
74,1.40114500733730216360894613014778
75,1.40385110376907929089474579972687
76,1.40652127916197434086508504454712
77,1.40915647536667230050975555324921
78,1.41175759765248638977910698843550
79,1.41432551657837441623505330503721
80,1.41686106974580371251807892967440
81,1.41936506344230782969365597950642
82,1.42183827418381670898720001374076
83,1.42428145016315332062754691435219
84,1.42669531261146546680239460348260
85,1.42908055707880216955614801662859
86,1.43143785463952819907075678977588
87,1.43376785302781282697115482967671
88,1.43607117770800551156079099748182
89,1.43834843288432771973179042611681
90,1.44060020245396687356515026941697
91,1.44282705090733695758641876653592
92,1.44502952417898202510257125088744
93,1.44720815045233658699151973856155
94,1.44936344092131393757732108549499
95,1.45149589051147231819574003031661
96,1.45360597856330699693861914657042
97,1.45569416948003200095694659731252
98,1.45776091334204236340706347106722
99,1.45980664649009427493726780259381
100,1.46183179207909418919510647360999
101,1.46383676060425862768276589729222
102,1.46582195040128085456655726162122
103,1.46778774812203267843438327743028
104,1.46973452918722237328611611186792
105,1.47166265821733663728361656112977
106,1.47357248944310374354572101768139
107,1.47546436709663695531771647071614
108,1.47733862578433803829141675736530
109,1.47919559084257210931828993593773
110,1.48103557867706264063359853911505
111,1.48285889708688957751173924551842
112,1.48466584557392409364012590146055
113,1.48645671563847797270534404989691
114,1.48823179106189684693000790073658
115,1.48999134817678607479659273900593
116,1.49173565612550970854698788094718
117,1.49346497710757128904059322065098
118,1.49517956661644417444900114339652
119,1.49687967366638539554931726219619
120,1.49856554100974118814469230788559
121,1.50023740534521408589645941282412
122,1.50189549751754254372056369542892
123,1.50354004270901186896994714779937
124,1.50517126062319755781615159761971
125,1.50678936566131256798195645521460
126,1.50839456709151486167921140890105
127,1.50998706921151097472119582334169
128,1.51156707150476878058954629865999
129,1.51313476879064054499844347468025
130,1.51469035136867898463242306806113
131,1.51623400515741363961739344910349
132,1.51776591182783989208427169762014
133,1.51928624893186118160090321060215
134,1.52079519002591369229183975894403
135,1.52229290478998467812238451549585
136,1.52377955914223190529415106415621
137,1.52525531534939838275808535349624
138,1.52672033213320293985962740605252
139,1.52817476477288510422716360631155
140,1.52961876520406728704781197193741
141,1.53105248211409272538435312642152
142,1.53247606103398955792325952276846
143,1.53388964442720276037378304634424
144,1.53529337177522848710307346789490
145,1.53668737966028117783401860565179
146,1.53807180184511591948323316005993
147,1.53944676935012035025135407900970
148,1.54081241052779143504538221797646
149,1.54216885113469891324107386435348
150,1.54351621440103905971530539408347
151,1.54485462109787467345872470209710
152,1.54618418960215159299239490002834
153,1.54750503595958068833964167288782
154,1.54881727394546922885166798951605
155,1.55012101512357986293806576224537
156,1.55141636890309507612533747693166
157,1.55270344259375817410537698465429
158,1.55398234145926260893827444977236
159,1.5552531687689533213039935398343
160,1.5565160258479064364063424080859
161,1.5577710121254458097125122907533
162,1.5590182251821558836957593072324
163,1.5602577607954457089464796772471
164,1.5614897129837187663156003157847
165,1.5627141740491971903781752786239
166,1.5639312346194509098770702190988
167,1.5651409836876789375393597383339
168,1.5663435086517854982549255757228
169,1.5675388953522960577836553123474
170,1.5687272281091529951864373465805
171,1.5699085897574311135204791245526
172,1.5710830616820108555393505524599
173,1.5722507238512446268124164810440
174,1.5734116548496520698642154243943
175,1.5745659319096782743542208900484
176,1.5757136309425446297398104535579
177,1.5768548265682255810521144637768
178,1.5779895921445804422742568640602
179,1.5791179997956667123648215768445
180,1.5802401204392658404229604111409
181,1.5813560238136440886816377992817
182,1.5824657785035761888169545436153
183,1.5835694519656548409524301352538
184,1.5846671105529102970008061916992
185,1.5857588195387618365771344995037
186,1.5868446431403221042116377532273
187,1.5879246445410781084763778730006
188,1.5889988859129643194545039442725
189,1.5900674284378515957594009897821
190,1.5911303323284675922988283501492
191,1.5921876568487678714571208029534
192,1.5932394603337741000199066998467
193,1.5942858002088976358146531715059
194,1.5953267330087618449749494432411
195,1.5963623143955410823182600171453
196,1.5973925991768300268662807092747
197,1.5984176413230577479636521150654
198,1.5994374939844606641104289397932
199,1.6004522095076272285017737174378
200,1.6014618394516282816150786199602
201,1.6024664346037440474083390371113
202,1.6034660449948011494285162272113
203,1.6044607199141303017004261505264
204,1.6054505079241562894534568859504
205,1.6064354568746302051937111718665
206,1.6074156139165169590202503186830
207,1.6083910255155439340146522608137
208,1.6093617374654250083163031932977
209,1.6103277949007656869233553416997
210,1.6112892423096608390330165827000
211,1.6122461235459924000967312522039
212,1.6131984818414372659364597966590
213,1.6141463598171897570370328608480
214,1.6150897994954136289284779717368
215,1.6160288423104228351200085307596
216,1.6169635291196049972752339996348
217,1.6178939002140915419080102437764
218,1.6188199953291834762906980110648
219,1.6197418536545360767578911327339
220,1.6206595138441149977822057694557
221,1.6215730140259217043684244529693
222,1.6224823918115054253913936752766
223,1.6233876843052551889734104773405
224,1.6242889281134869994690373481898
225,1.6251861593533287128750069427359
226,1.6260794136614061488856384985426
227,1.6269687262023390827251852228022
228,1.6278541316770489272478000765690
229,1.6287356643308852577443213075669
230,1.6296133579615758659932171323830
231,1.6304872459270021331270668924308
232,1.6313573611528101305399818466465
233,1.6322237361398524346515786860705
234,1.6330864029714768019114669463766
235,1.6339453933206548754672355810718
236,1.6348007384569606225940196163092
237,1.6356524692534021233490943712766
238,1.6365006161931084418050261442804
239,1.6373452093758770157896633989402
240,1.6381862785245837189073498531848
241,1.6390238529914598765494834278397
242,1.6398579617642390922157124515020
243,1.6406886334721779152943730290966
244,1.6415158963919520389216603471798
245,1.6423397784534324014209945761251
246,1.6431603072453437102905606697065
247,1.6439775100208067709278523660840
248,1.6447914137027722010635032003578
249,1.6456020448893404998405560840617
250,1.6464094298589788560930699283986
251,1.6472135945756325956914042801957
252,1.6480145646937340663171098500598
253,1.6488123655631140317462479609112
254,1.6496070222338152323814890103240
255,1.6503985594608119919537386863707
256,1.6511870017086359556650438277895
257,1.6519723731559143510290457286156
258,1.6527546976998172159912640125740
259,1.6535339989604203977145611847678
260,1.6543103002849847082778572644449
261,1.6550836247521515509024080071311
262,1.6558539951760597420045820801791
263,1.6566214341103823795405832429252
264,1.6573859638522892083924566208569
265,1.6581476064463330079300100588881
266,1.6589063836882621694017411171515
267,1.6596623171287626763191216489889
268,1.6604154280771295214793622786219
269,1.6611657376048718304852301745082
270,1.6619132665492474158576948772544
271,1.6626580355167360456651438187726
272,1.6634000648864454062140144695941
273,1.6641393748134572019100493706448
274,1.6648759852321106013173805028777
275,1.6656099158592269050204476386200
276,1.6663411861972737136816549638514
277,1.6670698155374760803659885586707
278,1.6677958229628664018513855685824
279,1.6685192273512845521853415856588
280,1.6692400473783203521624206546721
281,1.6699583015202062643754771066758
282,1.6706740080566578109545715969720
283,1.6713871850736649273045144103911
284,1.6720978504662314092613793770302
285,1.6728060219410692618304343348151
286,1.6735117170192439751729584412958
287,1.6742149530387757880790969861691
288,1.6749157471571933416641400726729
289,1.6756141163540443723385520800632
290,1.6763100774333641775865891099990
291,1.6770036470260996965238219509690
292,1.6776948415924920911914931770641
293,1.6783836774244217354387698301336
294,1.6790701706477106494087419638915
295,1.6797543372243844678947420280774
296,1.6804361929549015292812495602303
297,1.6811157534803390179670768904361
298,1.6817930342845454782244367199386
299,1.6824680506962565035819612425329
300,1.6831408178911753535889851564438
301,1.6838113508940189106870353243060
302,1.6844796645805310714288686517459
303,1.6851457736794607465208533218340
304,1.6858096927745080485927282546918
305,1.6864714363062400976228274515702
306,1.6871310185739757086825374678132
307,1.6877884537376361454399813523182
308,1.6884437558195694193787819806447
309,1.6890969387063442255597693775102
310,1.6897480161505138516664859864529
311,1.6903970017723536568732453591182
312,1.6910439090615696353369798224255
313,1.6916887513789794587765797702778
314,1.6923315419581678041577318493582
315,1.6929722939071152879245260802819
316,1.6936110202098023842473549955268
317,1.6942477337277858677736533979434
318,1.6948824472017531340442733816301
319,1.6955151732530515411048767957614
320,1.6961459243851927755841807856595
321,1.6967747129853361642352867742327
322,1.6974015513257470474788911970345
323,1.6980264515652337311524319008765
324,1.6986494257505619958153942772537
325,1.6992704858178489278574278011768
326,1.6998896435939343119607381475978
327,1.7005069107977324080450674935326
328,1.7011222990415613043298324571631
329,1.7017358198324548238645731644728
330,1.7023474845734534187495572007021
331,1.7029573045648754932427267135201
332,1.7035652910055702196598782459351
333,1.7041714549941522283556671098128
334,1.7047758075302163586094561346245
335,1.7053783595155367882166126487220
336,1.7059791217552466027806589764780
337,1.7065781049590006799717755447397
338,1.7071753197421229506888044696591
339,1.7077707766267341048109128739944
340,1.7083644860428658361224847468985
341,1.7089564583295573433334302832370
342,1.7095467037359365877538206950860
343,1.7101352324222859489275816252868
344,1.7107220544610922755277089750633
345,1.7113071798380831545349900667030
346,1.7118906184532468772870006380219
347,1.7124723801218396716384189403203
348,1.7130524745753770159440420809960
349,1.7136309114626125838770133521806
350,1.7142077003505023666256451799211
351,1.7147828507251560643799406668904
352,1.7153563719927754338917626487908
353,1.7159282734805788810351039887835
354,1.7164985644377137174972854294287
355,1.7170672540361564516735211508319
356,1.7176343513715993284681233389118
357,1.7181998654643263620941246660545
358,1.7187638052600781110562514681098
359,1.7193261796309009457927447934359
360,1.7198869973759897523633518618784
361,1.7204462672225158226773126953868
362,1.7210039978264464186371882833451
363,1.7215601977733506117510258112891
364,1.7221148755791964282959301902897
365,1.7226680396911375426799330457577
366,1.7232196984882884031003981266943
367,1.7237698602824906881349131264174
368,1.7243185333190678897988748592655
369,1.7248657257775726626078781340080
370,1.7254114457725226590119804433410
371,1.7259557013541277119060761071249
372,1.7264985005090073282995597119795
373,1.7270398511608984686759571131236
374,1.7275797611713579285724338636599
375,1.7281182383404500222100078249973
376,1.7286552904074310329075880993415
377,1.7291909250514222282419570815956
378,1.7297251498920746163711740222142
379,1.7302579724902272925898119342563
380,1.7307894003485561424220502309001
381,1.7313194409122157865045184401447
382,1.7318481015694718955259240033497
383,1.7323753896523285602983630038608
384,1.7329013124371456913571215317786
385,1.7334258771452500803805226710217
386,1.7339490909435407934284233496851
387,1.7344709609450846570311780498942
388,1.7349914942097057859716751949001
389,1.7355106977445698398473716865222
390,1.7360285785047602103015197267583
391,1.7365451433938464690267811588495
392,1.7370603992644486984893743274645
393,1.7375743529187951928408571591345
394,1.7380870111092721245233297527518
395,1.7385983805389680482995248108001
396,1.7391084678622129088917574243324
397,1.7396172796851111979227512722334
398,1.7401248225660692845845689335410
399,1.7406311030163155026156659938864
400,1.7411361275004173108684999796659
401,1.7416399024367915942588124253303
402,1.7421424341982088687489377972523
403,1.7426437291122942301297572115913
404,1.7431437934620229593232579296389
405,1.7436426334862082699181652520520
406,1.7441402553799873278857839309479
407,1.7446366652953026817980572821467
408,1.7451318693413766290365645714953
409,1.7456258735851814020901487240598
410,1.7461186840519077132161757229889
411,1.7466103067254259420344144616114
412,1.7471007475487435740264643704218
413,1.7475900124244599952300701716093
414,1.7480781072152150940564957085871
415,1.7485650377441359822134127749361
416,1.7490508097952782933067516510713
417,1.7495354291140649375385986773670
418,1.7500189014077195066829429515647
419,1.7505012323456986398514334005186
420,1.7509824275601183650662530647515
421,1.7514624926461784030599981473517
422,1.7519414331625837503283691610260
423,1.7524192546319614142248208707879
424,1.7528959625412759517494787119981
425,1.7533715623422402306503960649476
426,1.7538460594517250603187530030633
427,1.7543194592521652191893704443891
428,1.7547917670919619359023486721286
429,1.7552629882858857817384323001685
430,1.7557331281154728831931775090168
431,1.7562021918294220067616348655462
432,1.7566701846439897156397052390344
433,1.7571371117433789882495869613855
434,1.7576029782801324504324287701319
435,1.7580677893755181008764349280532
436,1.7585315501199154887221764244461
437,1.7589942655732005648175117537020
438,1.7594559407651282510240997202364
439,1.7599165806957134735565617767519
440,1.7603761903356117986781501706371
441,1.7608347746264969002439588849944
442,1.7612923384814384950428475831423
443,1.7617488867852804686702820890814
444,1.7622044243950138892481729915431
445,1.7626589561401543205845382519760
446,1.7631124868231145432025743646325
447,1.7635650212195799397567686468888
448,1.7640165640788798538168098076606
449,1.7644671201243628568674092387005
450,1.7649166940537681740544659619259
451,1.7653652905396008737477111001714
452,1.7658129142295037683279686612383
453,1.7662595697466318796102118713900
454,1.7667052616900259726161143221258
455,1.7671499946349889010218161965838
456,1.7675937731334601856073523826640
457,1.7680366017143936508375350130504
458,1.7684784848841346502468643007964
459,1.7689194271267995349152474556455
460,1.7693594329046571536080776309230
461,1.7697985066585103866615452894141
462,1.7702366528080810854484108045716
463,1.7706738757523971867363183528144
464,1.7711101798701803354190351798372
465,1.7715455695202381643563621250900
466,1.7719800490418585497883465962448
467,1.7724136227552053187366476050821
468,1.7728462949617206285076760549229
469,1.7732780699445267084188015781073
470,1.7737089519688347111509979086204
471,1.7741389452823551735966855402369
472,1.7745680541157146279463734728927
473,1.7749962826828739680190356118147
474,1.7754236351815563403607640037852
475,1.7758501157936737605269235911582
476,1.7762757286857652586642901435132
477,1.7767004780094371910929100526613
478,1.7771243679018107116244827671495
479,1.7775474024859756245551884288309
480,1.7779695858714513620448061819644
481,1.7783909221546540013202673632171
482,1.7788114154193732723277705179486
483,1.7792310697372553359348403816456
484,1.7796498891682945717153713077570
485,1.7800678777613362918117341393975
486,1.7804850395545854266042850852088
487,1.7809013785761285145513302518158
488,1.7813168988444641000556172451783
489,1.7817316043690453000258702491360
490,1.7821454991508329613470533186041
491,1.7825585871828621307110119957297
492,1.7829708724508210419161380972294
493,1.7833823589336432439783809158127
494,1.7837930506041146457149654674550
495,1.7842029514294943860477518897475
496,1.7846120653721535285738295442534
497,1.7850203963902280594321457392933
498,1.7854279484382909691280386715360
499,1.7858347254680417953983741727930
500,1.786240731429016684299713965870
501,1.786645970269315692274129203835
502,1.787050445936355813921058958112
503,1.787454162377642289472514169228
504,1.787857123541567181372652380794
505,1.788259333378229276490999483381
506,1.788660795840282320602626586419
507,1.789061514883810781515926461197
508,1.789461494469234205536157978265
509,1.789860738562239904229234663743
510,1.790259251134751617409460234854
511,1.790657036165929068449333042788
512,1.791054097643204095518753091792
513,1.791450439563353862877044358486
514,1.791846065933613829121263223848
515,1.792240980772832966690422492328
516,1.792635188112671690798427457539
517,1.793028691998845956946919175931
518,1.793421496492421842785265605605
519,1.793813605671160082908794783167
520,1.794205023630916267463553619913
521,1.794595754487096532763148982531
522,1.794985802376176245055490011680
523,1.795375171457281545370874296003
