Eigenstate,Potential Energy
1,0.500000000013289389824356636005833130
2,0.64623093773786082424803338444833649
3,0.73633760995978542249095043612047980
4,0.79966527834497810517156717094583173
5,0.8480465762050341208869045771795779
6,0.8870659982928653739744828550864033
7,0.9197208260458204311343854469971774
8,0.9477838458404166679846682851748024
9,0.9723835566826880472358537604671041
10,0.9942802127210537612865185476263376
11,1.0140093840964500809642893586433621
12,1.0319621661134328051992611698509706
13,1.0484326888377531727058514849396472
14,1.0636476499525102474096360787482400
15,1.0777854305723302874530845951383501
16,1.090988900113808412536516512488047
17,1.103374249757010828513566547673930
18,1.115037243451672962279666887171311
19,1.126057741021176232028646546614551
20,1.136503035796483937638509259184568
21,1.146430360697838070537447654255523
22,1.155888799393499195324606665290630
23,1.164920764236270929581268059352604
24,1.173563153663921978600700984439543
25,1.181848268995112437512557606128685
26,1.189804548236981476873299756177922
27,1.197457159047723130556711255108755
28,1.204828482095626098320853786290800
29,1.211938508261025655754048062492397
30,1.218805167478128196282968721349900
31,1.225444602867730430754600573901414
32,1.231871400733955686035448437432992
33,1.238098784688481940427332152523074
34,1.244138780415189967911966942700284
35,1.250002356248964897824485101457060
36,1.255699543708905618234850540822196
37,1.261239541322111902982190791774212
38,1.266630804443800399312412697902186
39,1.271881123281651963668958429026804
40,1.276997690936472049735713661830164
41,1.281987162954495579186303520919944
42,1.286855709631675124150411020971899
43,1.291609062103804885541925305205586
44,1.296252553088238935931151611986816
45,1.300791153005392626680687799404153
46,1.305229502095079776499753627703230
47,1.309571939049261646264257107104002
48,1.313822526605197340721800741153812
49,1.317985074478322733821151846196387
50,1.32206315996006230076653520583626
51,1.32606014646031127743643805887102
52,1.32997920023598035351718493547783
53,1.33382330551454498716390997305038
54,1.33759527819398029755249810503327
55,1.34129777827698699918024565963627
56,1.34493332117733927165293387581511
57,1.34850428801898649358137264023192
58,1.35201293503374358292323269800216
59,1.35546140215065073883408672720781
60,1.35885172085905887239203482259681
61,1.36218582141793278605810442356567
62,1.36546553947556315662317983485930
63,1.36869262215663648737344760407571
64,1.37186873366729971528578994866384
65,1.37499546046332131909302140478531
66,1.37807431602160343500599730261400
67,1.38110674525103719555476431317451
68,1.38409412857493734620326259859127
69,1.38703778571397952366600567242814
70,1.38993897919563531159190582122141
71,1.39279891761350148554968027743570
72,1.39561875865762161687011322974822
73,1.39839961193484519849723515286267
74,1.40114254159645060744817809337161
75,1.40384856878862711737871170562762
76,1.40651867393996161799652718612604
77,1.40915379889877329964644072552004
78,1.41175484893197376321169936805312
79,1.41432269459608319548349143346774
80,1.41685817349009512450649496969121
81,1.41936209189903292793177258186319
82,1.42183522633627981685493519782688
83,1.42427832499207528382793688551303
84,1.42669210909494671201679171650720
85,1.42907727419228556630387916153601
86,1.43143449135576172174428448656783
87,1.43376440831681201398573370952710
88,1.43606765053701571852607524124786
89,1.43834482221778616352079772276841
90,1.44059650725346446412379246900437
91,1.44282327013157991429392603177376
92,1.44502565678375327446088303464318
93,1.44720419539045693838812661438937
94,1.44935939714260303383272192190499
95,1.45149175696270935757279595512655
96,1.45360175418819122325698842117785
97,1.45568985321914295842061935788996
98,1.45775650413279991271867041100536
99,1.45980214326671836723647163518803
100,1.46182719377256439432301459787657
101,1.46383206614227341323725570526105
102,1.46581715870821661217676427267177
103,1.46778285811890249364517134066292
104,1.46972953979163453540443526313989
105,1.47165756834345288550111008170210
106,1.47356729800159724561203291299517
107,1.47545907299465001499947339773064
108,1.47733322792543952781139429263525
109,1.47919008812671462292828966755602
110,1.48102997000053936543305508093753
111,1.48285318134229087758177987890120
112,1.48466002165009380351990124414601
113,1.48645078242046939619408643261454
114,1.48822574743092845715385821354314
115,1.48998519301019691143441168727308
116,1.49172938829671446806386162998321
117,1.49345859548601510373137605006931
118,1.49517307006755707604709686164297
119,1.49687306105153645910845198990852
120,1.49855881118619235185246328327120
121,1.50023055716607364242945245900489
122,1.50188852983171829870073901362073
123,1.50353295436116396203094372330755
124,1.50516405045369094173683431169062
125,1.50678203250616914129155505770673
126,1.50838710978236525008551382913953
127,1.50997948657554595665880852638614
128,1.51155936236469035213017935838235
129,1.51312693196461261930937636682490
130,1.51468238567027772111255498830375
131,1.51622590939557739778224494905544
132,1.51775768480681880521259435632184
133,1.51927788945116634509676112253071
134,1.52078669688026596165428438652050
135,1.52228427676926307135391132297030
136,1.52377079503142160451699494576517
137,1.52524641392853832974287490301704
138,1.52671129217733302010718190475593
139,1.52816558505199291417831491229620
140,1.52960944448303447892908801151827
141,1.53104301915264092413062312085043
142,1.53246645458662584454839292391139
143,1.53387989324316471609115053335304
144,1.53528347459842879242636276227340
145,1.53667733522925176081680631778502
146,1.53806160889295164718193647094460
147,1.53943642660442225742169920904024
148,1.54080191671060948400713705695977
149,1.54215820496247427876776825429433
150,1.54350541458454593272865467397357
151,1.54484366634216157722613559085721
152,1.54617307860648220544672458135910
153,1.54749376741737416405685031143253
154,1.54880584654424001413926721729091
155,1.55010942754487699740202311840626
156,1.55140461982244097399593356570502
157,1.55269153068058687851643580261100
158,1.55397026537685751226318288350192
159,1.5552409271743843445627869461374
160,1.5565036173919666606643826878188
161,1.5577584354525875522989205947837
162,1.5590054789304262119734778839042
163,1.5602448435964213842699392681907
164,1.5614766234624406107128901847634
165,1.5627009108241038683942544762213
166,1.5639177963023121179134504120202
167,1.5651273688835279929223169262944
168,1.5663297159588513201582438542234
169,1.5675249233619345320260362914796
170,1.5687130754057777148140126531238
171,1.5698942549184434869750548681127
172,1.5710685432777295741003432321291
173,1.5722360204448344828863849875202
174,1.5733967649970521175791160163714
175,1.5745508541595293237979064192416
176,1.5756983638361160660620267120712
177,1.5768393686393414995268371561147
178,1.5779739419195450902955786511369
179,1.5791021557931892292223080083978
180,1.5802240811703842855745376095812
181,1.5813397877816487491113757217487
182,1.5824493442039321559321447956436
183,1.5835528178859238473389740361018
184,1.5846502751726718032188655585455
185,1.5857417813295333580379862625276
186,1.5868274005654787680368898345912
187,1.5879071960557714300932057745306
188,1.5889812299640401885354111509197
189,1.5900495634637674609642292005413
190,1.5911122567592088341252715398902
191,1.5921693691057633523501543619315
192,1.5932209588298108807338539261928
193,1.5942670833480348468604220353671
194,1.5953077991862437018232436403751
195,1.5963431619977090328615020426573
196,1.5973732265810340194752201488343
197,1.5983980468975666083017191296401
198,1.5994176760883715686943269329326
199,1.6004321664907742628183771367883
200,1.6014415696544900704251630527900
201,1.6024459363573504446822437904693
202,1.6034453166206389751709955261266
203,1.6044397597240481127330977430002
204,1.6054293142202681710269933772108
205,1.6064140279492185701060341054307
206,1.6073939480519343407147019949566
207,1.6083691209841137599280774921417
208,1.6093395925293413395386915482180
209,1.6103054078119919100179773740124
210,1.6112666113098272956508734576149
211,1.6122232468662929397995943259182
212,1.6131753577025247074182187036638
213,1.6141229864290702427055252200747
214,1.6150661750573398575792393210510
215,1.6160049650107861571958549701677
216,1.6169393971358263569660930041839
217,1.6178695117125112501009396724656
218,1.6187953484649497981306876184937
219,1.6197169465714926173253340755947
220,1.6206343446746868691364782351402
221,1.6215475808910004569427245114032
222,1.6224566928203327264562091174409
223,1.6233617175553052306133884815385
224,1.6242626916903476182401914104628
225,1.6251596513305812030258002841054
226,1.6260526321005037507376212689242
227,1.6269416691524841275154856266010
228,1.6278267971750686194359166950004
229,1.6287080504011060754813015957769
230,1.6295854626156965601417787708191
231,1.6304590671639653049037072329949
232,1.6313288969586723675287938627273
233,1.6321949844876529846114632322640
234,1.6330573618211047634633414184927
235,1.6339160606187148844077409995275
236,1.6347711121366370122350661697512
237,1.6356225472343215369284671628836
238,1.6364703963812008746529109999653
239,1.6373146896632352645692284709843
240,1.6381554567893212148711964209793
241,1.6389927270975668793749095465024
242,1.6398265295614372205908264082047
243,1.6406568927957729900311966726384
244,1.6414838450626852139685569008281
245,1.6423074142773295577350116865267
246,1.6431276280135630871086432542574
247,1.6439445135094848085511455584197
248,1.6447580976728675688291264404879
249,1.6455684070864762825127689201110
250,1.6463754680132828714505757369555
251,1.6471793064015758156250581961947
252,1.6479799478899671132822956271313
253,1.6487774178123017219313264799135
254,1.6495717412024691364632144837001
255,1.6503629427991209838121505894908
256,1.6511510470502947189179741228143
257,1.6519360781179498127273516161697
258,1.6527180598824128762850009312954
259,1.6534970159467385237581405069557
260,1.6542729696409863600912139792606
261,1.6550459440264144063406930343303
262,1.6558159618995936874145384640078
263,1.6565830457964428320957180731869
264,1.6573472179961881355001960427264
265,1.6581085005252476084942060423487
266,1.6588669151610411811004832685887
267,1.6596224834357302724226115774012
268,1.6603752266398867600836412062158
269,1.6611251658260956183751634879840
270,1.6618723218124869485381194739902
271,1.6626167151862066844085915691899
272,1.6633583663068199522694439448267
273,1.6640972953096545272989213648213
274,1.6648335221090815949101520084008
275,1.6655670664017376918374523046814
276,1.6662979476696861045979144256111
277,1.6670261851835252086184506707030
278,1.6677517980054355019518969696865
279,1.6684748049921768360267683266437
280,1.6691952247980279362761782165128
281,1.6699130758776761014490090378015
282,1.6706283764890545778512905633613
283,1.6713411446961308209439448132536
284,1.6720513983716428008119025227236
285,1.6727591551997901587446483981948
286,1.6734644326788762396534249944933
287,1.6741672481239060595957216278084
288,1.6748676186691366101626867495403
289,1.6755655612705841477733820344856
290,1.6762610927084892003825733976040
291,1.6769542295897371325220695932578
292,1.6776449883502371535615865583426
293,1.6783333852572636749433086581512
294,1.6790194364117550532840220316197
295,1.6797031577505718064694519391775
296,1.6803845650487218882799822991116
297,1.6810636739215429532519668178521
298,1.6817404998268509285054076974910
299,1.6824150580670516953725507434859
300,1.6830873637912176314097755768271
301,1.6837574319971294242074104731107
302,1.6844252775332852499067259673678
303,1.6850909151008744895296090334440
304,1.6857543592557195606268176107133
305,1.6864156244101872927476695103304
306,1.6870747248350691099275962619425
307,1.6877316746614272021432673113330
308,1.6883864878824141641602459053937
309,1.6890391783550621910349702201724
310,1.6896897598020421654139202699423
311,1.6903382458133962315291440606404
312,1.6909846498482413690186545821672
313,1.6916289852364453593173585154558
314,1.6922712651802769488880505923954
315,1.6929115027560295289319679374010
316,1.6935497109156197072172452079923
317,1.6941859024881583106265474208529
318,1.6948200901814991696651479754037
319,1.6954522865837628264877597051462
320,1.6960825041648351676986649479549
321,1.6967107552778449008558431232994
322,1.6973370521606159891061191358190
323,1.6979614069370985579870358319864
324,1.6985838316187772515310303819663
325,1.6992043381060587996493272534731
326,1.6998229381896370340181872847583
327,1.7004396435518381732192454503894
328,1.7010544657679435663246774518993
329,1.7016674163074948697819042376182
330,1.7022785065355780892599488153999
331,1.7028877477140879250296837421763
332,1.7034951510029734820980591062624
333,1.7041007274614657236297867401767
334,1.7047044880492848516580618621588
335,1.7053064436278319299949022878802
336,1.7059066049613608073707133123532
337,1.7065049827181332130269217214864
338,1.7071015874715580835916002905678
339,1.7076964297013111857229328990860
340,1.7082895197944411258385381714349
341,1.7088808680464574604860466851804
342,1.7094704846624034044820276245458
343,1.7100583797579127745862779547904
344,1.7106445633602511623960295128301
345,1.7112290454093431557719837234880
346,1.7118118357587830835685913190766
347,1.7123929441768328490048678697138
348,1.7129723803474036633771795087194
349,1.7135501538710252250163377158583
350,1.7141262742657998858069278854945
351,1.7147007509683438928505916235736
352,1.7152735933347153876159920144980
353,1.7158448106413284469316932484771
354,1.7164144120858545802763808450734
355,1.7169824067881120486284602063512
356,1.7175488037909412146421627897366
357,1.7181136120610691631732100823140
358,1.7186768404899628361402992802428
359,1.7192384978946664268460471359632
360,1.7197985930186319716620166362695
361,1.7203571345325348839324320936721
362,1.7209141310350809116824351375332
363,1.7214695910537991147300934349086
364,1.7220235230458258851824490526307
365,1.7225759353986782476693751848948
366,1.7231268364310153169717950581564
367,1.7236762343933908050420063053254
368,1.7242241374689933661322980857406
369,1.7247705537743794125652952064091
370,1.7253154913601941143091728371417
371,1.7258589582118834356552581302165
372,1.7264009622503961654655971790791
373,1.7269415113328759076946304154665
374,1.7274806132533473406533653115976
375,1.7280182757433874365745719381413
376,1.7285545064727930976834712230694
377,1.7290893130502369979735259760409
378,1.7296227030239147980877090626890
379,1.7301546838821855730958149441880
380,1.7306852630542022099217376754565
381,1.7312144479105346498450138022873
382,1.7317422457637830942357454972321
383,1.7322686638691858481729195696814
384,1.7327937094252167656356371882891
385,1.7333173895741759175101471707085
386,1.7338397114027741410534877718664
387,1.7343606819427072201371979157817
388,1.7348803081712236330562511826958
389,1.7353985970116865425749838966160
390,1.7359155553341272173011368520470
391,1.7364311899557902013133874882706
392,1.7369455076416738404032986923519
393,1.7374585151050636384017400072962
394,1.7379702190080570246697712528235
395,1.7384806259620823896093174347583
396,1.7389897425284120390436887002602
397,1.7394975752186686973579007093488
398,1.7400041304953255675151688678870
399,1.7405094147721985137223885983153
400,1.7410134344149346666835911177563
401,1.7415161957414935003422856675589
402,1.7420177050226211253104554010283
403,1.7425179684823206197047050939977
404,1.7430169922983162904602281258797
405,1.7435147826025093305486216772313
406,1.7440113454814309811144533966731
407,1.7445066869766903152312500069529
408,1.7450008130854141464513718957700
409,1.7454937297606819232069714363462
410,1.7459854429119581235205754785932
411,1.7464759584055164100234353920493
412,1.7469652820648591278510368537449
413,1.7474534196711332244551036253620
414,1.7479403769635390151577853621357
415,1.7484261596397360783901584878838
416,1.7489107733562427102281263571708
417,1.7493942237288317866920728999883
418,1.7498765163329201970265026938731
419,1.7503576567039561264507534739830
420,1.7508376503377991702826342469910
421,1.7513165026910972315980899800095
422,1.7517942191816594840087905615608
423,1.7522708051888232356771459318201
424,1.7527462660538183082725006888778
425,1.7532206070801253102073391464879
426,1.7536938335338314109723009154245
427,1.7541659506439811011778904699302
428,1.7546369636029219519686938501417
429,1.7551068775666492861751901768818
430,1.7555756976551426232862916400550
431,1.7560434289527014018732975001553
432,1.7565100765082771289562691675358
433,1.7569756453357972941854551816988
434,1.7574401404144921467507822849636
435,1.7579035666892121586686299696424
436,1.7583659290707440754108057353811
437,1.7588272324361237152197357982465
438,1.7592874816289444991475826417273
439,1.7597466814596623930971823119008
440,1.7602048367058983330510121551420
441,1.7606619521127352933132833882030
442,1.7611180323930135613834423270658
443,1.7615730822276238671277215022486
444,1.7620271062657929855908721395777
445,1.7624801091253711440770293393124
446,1.7629320953931122578187391793151
447,1.7633830696249541633724754958451
448,1.7638330363462920679106735586046
449,1.7642820000522530548835298738267
450,1.7647299652079637984597247677115
451,1.7651769362488189898074881163281
452,1.7656229175807433165315183745130
453,1.7660679135804527383037775818651
454,1.7665119285957114476032121585082
455,1.7669549669455881394021996208111
456,1.7673970329207068867637443903624
457,1.7678381307834973180210602525094
458,1.7682782647684404914002039947358
459,1.7687174390823129809741699256223
460,1.7691556579044288162545032223227
461,1.7695929253868771251081978346664
462,1.7700292456547586930124543643280
463,1.7704646228064200423799689327527
464,1.7708990609136831928224960321694
465,1.7713325640220750710485728300616
466,1.7717651361510537010532940422212
467,1.7721967812942304550763849092525
468,1.7726275034195933809285909349136
469,1.7730573064697240823432096719811
470,1.7734861943620156768515609322066
471,1.7739141709888860982476876025141
472,1.7743412402179910412120272329793
473,1.7747674058924318989535144501503
474,1.7751926718309661978204369938481
475,1.7756170418282094515915048020163
476,1.7760405196548409492076835902684
477,1.7764631090578038088962178154830
478,1.7768848137605039746297280011307
479,1.7773056374630070442578648133496
480,1.7777255838422333238449581329790
481,1.7781446565521496590409173375464
482,1.7785628592239616122230418318272
483,1.7789801954663013653562480614165
484,1.7793966688654141682756450137543
485,1.7798122829853448092158920387291
486,1.7802270413681186923281084030067
487,1.7806409475339243709127361063216
488,1.7810540049812921328004108961853
489,1.7814662171872718659249452883167
490,1.7818775876076080670760050614945
491,1.7822881196769141279745019607586
492,1.7826978168088444867149301378234
493,1.7831066823962646194390597804783
494,1.7835147198114199661336197768977
495,1.7839219324061019828981479646663
496,1.7843283235118145649523076617030
497,1.7847338964399365257487305179568
498,1.7851386544818840772876555499159
499,1.7855426009092708087947724314341
500,1.785945738974067294071790637347
501,1.786348071908756073365265157436
502,1.786749602926489464738336300183
503,1.787150335221241672870879979603
504,1.787550271967963038921956198368
505,1.787949416322729278711330604732
506,1.788347771422891439096043281546
507,1.788745340387224420352607906976
508,1.789142126316073704304100740372
509,1.789538132291498518857880427327
510,1.789933361377417491963514424927
511,1.790327816619750025836198433578
512,1.790721501046557291408970737300
513,1.791114417668181458517515921461
514,1.791506569477383838045592033316
515,1.791897959449482310095645945443
516,1.792288590542486248338574788064
517,1.792678465697230015099147002831
518,1.793067587837506812380424969072
519,1.793455959870199670588927580523
520,1.793843584685412431781924091593
521,1.794230465156597522483068984816
522,1.794616604140684792085782845153
523,1.795002004478207853819770230968
