Eigenstate,Potential Energy
1,0.500000000016499317136610451489183913
2,0.64623093775881352377619969961444805
3,0.73633761002133213548224392836147012
4,0.79966527847317244925136858555989911
5,0.8480465764270920058949808012938628
6,0.8870659986364784164624084727218182
7,0.9197208265389028332895158806338443
8,0.9477838465109995204123036055543153
9,0.9723835575588700554000616946271830
10,0.9942802138309761225318002059525460
11,1.0140093854682827304524272407666895
12,1.0319621677753664552009244161076973
13,1.0484326908179945057460107474568889
14,1.0636476522792789243914706387772815
15,1.0777854332738570506555121449602532
16,1.090988903218333876289840761308013
17,1.103374253292784717134500412894213
18,1.115037247446953647884195250887708
19,1.126057745504230478852926934271038
20,1.136503040795586791973697659949111
21,1.146430366241272855527723302299364
22,1.155888805509557582723017974646284
23,1.164920770953253068955579444671752
24,1.173563161010136670095576780995682
25,1.181848276998877338104621925498625
26,1.189804556926623332717320775081775
27,1.197457168451578029902236280558764
28,1.204828492242039740828650559922981
29,1.211938519178353635024427654890065
30,1.218805179194736293132810262114097
31,1.225444615411994915320885599627617
32,1.231871414134263627191470287588215
33,1.238098798973231521309220596043892
34,1.244138795612790806593053590949037
35,1.250002372387838372361467665263260
36,1.255699560817485195455831096621748
37,1.261239559428843470502106500431308
38,1.266630823577142600353254604949727
39,1.271881143470076534335821656074632
40,1.276997712208464158459145508218540
41,1.281987185338554168089660308019104
42,1.286855733156313252140337528572325
43,1.291609086797550072952435040431388
44,1.296252578979633510578505039245771
45,1.300791180122994071208438257971697
46,1.305229530467461076911823549723007
47,1.309571968705011641559391375447292
48,1.313822557572921073555778330159153
49,1.317985106786641802134138712424078
50,1.32206319363761521032230333492406
51,1.32606018153575379522812295264686
52,1.32997923673798586200104881212165
53,1.33382334347180483928839919033216
54,1.33759531763520417255490140630254
55,1.34129781923090325912758388466501
56,1.34493336367269531870745832565716
57,1.34850433208454912797430431153631
58,1.35201298069829936162321443399865
59,1.35546144944300633489929008695065
60,1.35885176980804143499703796867515
61,1.36218587205239030118855881024704
62,1.36546559182436480843297269243127
63,1.36869267624867302020053673439211
64,1.37186878953148379632420228635626
65,1.37499551812858790171968047301320
66,1.37807437551691012276206666672200
67,1.38110680660536460678212397494493
68,1.38409419181728947933755938447987
69,1.38703785087338412318846244320784
70,1.38993904630114423464272259885393
71,1.39279898669419106920647899985059
72,1.39561882974259304609539269267173
73,1.39839968505322487475931053447019
74,1.40114261677739051802050503549981
75,1.40384864606130520532290449698518
76,1.40651875333358215283473695728972
77,1.40915388044256724872909783507126
78,1.41175493265519916378692865386550
79,1.41432278052802552747477926903411
80,1.41685826166006768400545196313744
81,1.41936218233637720141306196123718
82,1.42183531907036585612066958772076
83,1.42427842005230208168903113129360
84,1.42669220651074257871894569922298
85,1.42907737399310850670605371263239
86,1.43143459357109981325767538105384
87,1.43376451297618378528141462215257
88,1.43606775766997052901962147962514
89,1.43834493185390458364231926780652
90,1.44059661942235865638194453513316
91,1.44282338486289401514258622368985
92,1.44502577410716377697727891261986
93,1.44720431533567307577131781363372
94,1.44935951973936716373143984181307
95,1.45149188224079734725173586179977
96,1.45360188217741283561073830500947
97,1.45568998394934223884451050294138
98,1.45775663763385557684589993414185
99,1.45980227956854418955095111397326
100,1.46182733290510959765745482204518
101,1.46383220813552305916609421480516
102,1.46581730359219199231360406213528
103,1.46778300592366152185446382031571
104,1.46972969054727214093723545388201
105,1.47165772208010140706477214243201
106,1.47356745474942682638380479001256
107,1.47545923278386899859399554922931
108,1.47733339078629485521217366130604
109,1.47919025408949223039330186060654
110,1.48103013909556458338467102571913
111,1.48285335359992883049127339630945
112,1.48466019710074981079687271490714
113,1.48645096109458937409117814735865
114,1.48822592935899932169720461492571
115,1.48998537822274698239032655481667
116,1.49172957682431387395232335064571
117,1.49345878735927618789692826847730
118,1.49517326531713480379783891055015
119,1.49687325970812882593384791534168
120,1.49855901328054079273076740820290
121,1.50023076272896344223559417171933
122,1.50188873889397900372557225315334
123,1.50353316695366979262282308622950
124,1.50516426660736120607653345473920
125,1.50678225225196865031160879126692
126,1.50838733315130473354511083700014
127,1.50997971359868248038543004485624
128,1.51155959307312773643923095221942
129,1.51312716638950185861311415582983
130,1.51468262384281740472967438706495
131,1.51622615134701413195954513736384
132,1.51775793056844763637021910709541
133,1.51927813905433118430852477073767
134,1.52078695035636001037470057345126
135,1.52228453414972924840358385382343
136,1.52377105634775297433806449878598
137,1.52524667921227853193632211678200
138,1.52671156146007670026380795694864
139,1.52816585836538615601530073634697
140,1.52960972185877523774409495839144
141,1.53104330062247946158544277972725
142,1.53246674018236516479424077151689
143,1.53388018299666100324773719790165
144,1.53528376854159184942695130157352
145,1.53667763339404544963152656724479
146,1.53806191131139433043168787618266
147,1.53943673330858724139504453344087
148,1.54080222773262546309264182215710
149,1.54215852033452578131432065307862
150,1.54350573433887376834634401477643
151,1.54484399051106328554037592375007
152,1.54617340722231250631832060249449
153,1.54749410051254540928081896889751
154,1.54880618415122264063526698780886
155,1.55010976969619998190932000073543
156,1.55140496655069228928591044796806
157,1.55269188201841395113570484431058
158,1.55397062135696768182045282948820
159,1.5552412878295453245726817031810
160,1.5565039827550070009614938806176
161,1.5577588055563971030354454759170
162,1.5590058538079565892138961796951
163,1.5602452232806864371961916239921
164,1.5614770079865168904536279774439
165,1.5627013002211310984918684625701
166,1.5639181906054936664425285882979
167,1.5651277681261313462733685037030
168,1.5663301201742085585005676234190
169,1.5675253325834428064636674439114
170,1.5687134896668997262487913801764
171,1.5698946742527079666909309116457
172,1.5710689677187317660831058103324
173,1.5722364500262366278930626999849
174,1.5733971997525839389714295410862
175,1.5745512941229885151541841698107
176,1.5756988090413687805821212246447
177,1.5768398191203228412445966758059
178,1.5779743977102596071136066662287
179,1.5791026169277114077837357039180
180,1.5802245476828590479866746442001
181,1.5813402597062919515361887309528
182,1.5824498215750310890585666452283
183,1.5835533007378377387521540208256
184,1.5846507635398323216815864512780
185,1.5857422752464451196995073654545
186,1.5868279000667198445846046343720
187,1.5879077011759938588625971169024
188,1.5889817407379704845938316137947
189,1.5900500799262071311842051479155
190,1.5911127789450348932630407272447
191,1.5921698970499288411452827948071
192,1.5932214925673453860458859485329
193,1.5942676229140450238585881315277
194,1.5953083446159137982453358640015
195,1.5963437133263014153581692910371
196,1.5973737838438897020559841855467
197,1.5983986101301057828991587755813
198,1.5994182453260941378629289213750
199,1.6004327417692603745846833233479
200,1.6014421510094006553059667597762
201,1.6024465238244277548876202268299
202,1.6034459102357071260091467505046
203,1.6044403595230136262340033979275
204,1.6054299202391205218020594874463
205,1.6064146402240307334609411737121
206,1.6073945666188633430328505098638
207,1.6083697458794012313420648977761
208,1.6093402237893140689074268705529
209,1.6103060454730624022270939781019
210,1.6112672554084943312542589488946
211,1.6122238974391421370199305338461
212,1.6131760147862290865245632155442
213,1.6141236500603907927860743687031
214,1.6150668452731261057275253137802
215,1.6160056418479767401287489327527
216,1.6169400806314495950920970788858
217,1.6178702019036857240573801182400
218,1.6187960453888849278085292245375
219,1.6197176502654892434004773676341
220,1.6206350551761378371264847092147
221,1.6215482982373912038081012380744
222,1.6224574170492418697654196886695
223,1.6233624487044051602909714747201
224,1.6242634297974050909174227921307
225,1.6251603964334579390135282549214
226,1.6260533842371570336409785355192
227,1.6269424283609674065103245482938
228,1.6278275634935321142269758381417
229,1.6287088238677973839621982997473
230,1.6295862432689612687770741368867
231,1.6304598550422476018534631603621
232,1.6313296921005156585361062988071
233,1.6321957869317005116736290315107
234,1.6330581716061002263074863452892
235,1.6339168777835030647918033213082
236,1.6347719367201644010952299514495
237,1.6356233792756369643942579429107
238,1.6364712359194561429513252798890
239,1.6373155367376857838393700812563
240,1.6381563114393266419111113985485
241,1.6389935893625917593423787275978
242,1.6398273994810516316800674994377
243,1.6406577704096531911475976107643
244,1.6414847304106142954236445142587
245,1.6423083073991980949840696538897
246,1.6431285289493697975535608959054
247,1.6439454222993372114311373783372
248,1.6447590143569826482222423599148
249,1.6455693317051811534712077433548
250,1.6463764006070154492929236320668
251,1.6471802470108854884088810889046
252,1.6479808965555154174805238471148
253,1.6487783745748630213360940842202
254,1.6495727061029313043410400430781
255,1.6503639158784860883343886411171
256,1.6511520283496797118907492179130
257,1.6519370676785872216452830924949
258,1.6527190577456514997332347805158
259,1.6534980221540441301873523062120
260,1.6542739842339423899904577655982
261,1.6550469670467226778330903253666
262,1.6558169933890751053010574205144
263,1.6565840857970381003723673656356
264,1.6573482665499584733742389574850
265,1.6581095576743754699251216067825
266,1.6588679809478309778916164573631
267,1.6596235579026091008896077384509
268,1.6603763098294051313259735026176
269,1.6611262577809281921772547480144
270,1.6618734225754332709267230370048
271,1.6626178248001919288932807103615
272,1.6633594848148956647933469175650
273,1.6640984227549993749268770675597
274,1.6648346585350021182818042609497
275,1.6655682118516690614129076975144
276,1.6662991021871928807238169256713
277,1.6670273488123021054425882491974
278,1.6677529707893081552145277437406
279,1.6684759869751025747571742992069
280,1.6691964160240965584231589877100
281,1.6699142763911106534741289968342
282,1.6706295863342121383140315360323
283,1.6713423639175032881080799797403
284,1.6720526270138576843026003392900
285,1.6727603933076113752860735268237
286,1.6734656802972049129167890349536
287,1.6741685052977813241879603093561
288,1.6748688854437364197862471646009
289,1.6755668376912260875876600036030
290,1.6762623788206313035979252598066
291,1.6769555254389787012574979427436
292,1.6776462939823195839973980077999
293,1.6783347007180712868003340196949
294,1.6790207617473159236611816079575
295,1.6797044930070586080717131984738
296,1.6803859102724527320689702651520
297,1.6810650291589822355517734100062
298,1.6817418651246101825963400274949
299,1.6824164334718904476058470408506
300,1.6830887493500442618765320872269
301,1.6837588277570020319952641107502
302,1.6844266835414125229780243201397
303,1.6850923314046165792551145781366
304,1.6857557859025889610091894178196
305,1.6864170614478497243693212123890
306,1.6870761723113444086577338149099
307,1.6877331326242902126391083054039
308,1.6883879563799956381978379698950
309,1.6890406574356496907051963697677
310,1.6896912495140809712195766961638
311,1.6903397462054902554191721317685
312,1.6909861609691540723961137077372
313,1.6916305071351006760577291602557
314,1.6922727979057602134049612873536
315,1.6929130463575884093275704452570
316,1.6935512654426651435548327684844
317,1.6941874679902654583633010533099
318,1.6948216667084083482831489784661
319,1.6954538741853804733617434103660
320,1.6960841028912347972393143324357
321,1.6967123651792680689675728817574
322,1.6973386732874732629988233176086
323,1.6979630393399704913814068626962
324,1.6985854753484153652974742763884
325,1.6992059932133865679207175949060
326,1.6998246047257508758171827721115
327,1.7004413215680084496409272524871
328,1.7010561553156155833160000021587
329,1.7016691174382898865593040212668
330,1.7022802193012943324071658789617
331,1.7028894721667016083180095642897
332,1.7034968871946398320715166460780
333,1.7041024754445200109982649058973
334,1.7047062478762434285416039463722
335,1.7053082153513932730627540921361
336,1.7059083886344065669190639477606
337,1.7065067783937292680396251292051
338,1.7071033952029556028286042960829
339,1.7076982495419476948812701282179
340,1.7082913517979415808314595152908
341,1.7088827122666353268858242863838
342,1.7094723411532617431726737788187
343,1.7100602485736453336725750546323
344,1.7106464445552434754157436799959
345,1.7112309390381736462584437167182
346,1.7118137418762241760113349153928
347,1.7123948628378520862561946592973
348,1.7129743116071648305531508276219
349,1.7135520977848894799408629951261
350,1.7141282308893268960482118536637
351,1.7147027203572929793993761745624
352,1.7152755755450466752556884409425
353,1.7158468057292040213507632032811
354,1.7164164201076396519736905988186
355,1.7169844278003761236628569745031
356,1.7175508378504592722778646610261
357,1.7181156592248228404731166323976
358,1.7186789008151416195596522027407
359,1.7192405714386688508793128261939
360,1.7198006798390668245964436910501
361,1.7203592346872224207619509102148
362,1.7209162445820540742361428707380
363,1.7214717180513047590700948106407
364,1.7220256635523260163260366436296
365,1.7225780894728512616911911895383
366,1.7231290041317572505421005246862
367,1.7236784157798165924574107134372
368,1.7242263326004381038960409630624
369,1.7247727627103996315744919930205
370,1.7253177141605690597070190810424
371,1.7258611949366163544064378419447
372,1.7264032129597156017140366504262
373,1.7269437760872370059628041626472
374,1.7274828921134331569431365259610
375,1.7280205687701102574300225836752
376,1.7285568137272957672764397587409
377,1.7290916345938942532734942473133
378,1.7296250389183346121778073065280
379,1.7301570341892105066975207181505
380,1.7306876278359107711911216672270
381,1.7312168272292426625042941082972
382,1.7317446396820450741038945183920
383,1.7322710724497963881602051904027
384,1.7327961327312119292670914296200
385,1.7333198276688346410437163510198
386,1.7338421643496196442590617941477
387,1.7343631498055084258035109001745
388,1.7348827910139965952928972021823
389,1.7354010948986958839775907063645
390,1.7359180683298875750482471108066
391,1.7364337181250676822642199027056
392,1.7369480510494874852660888877216
393,1.7374610738166868950430140667561
394,1.7379727930890192306355096058070
395,1.7384832154781702639295682282936
396,1.7389923475456711833927663433702
397,1.7395001958034051066430572506364
398,1.7400067667141071499670189341915
399,1.7405120666918566205613186491088
400,1.7410161021025656314367015237786
401,1.7415188792644601878863874673927
402,1.7420204044485544907169683595595
403,1.7425206838791212769631810418552
404,1.7430197237341560911579484987852
405,1.7435175301458329525840974934666
406,1.7440141092009575275236561080015
407,1.7445094669414149232059100181126
408,1.7450036093646096066294619552303
409,1.7454965424239003093160552966428
410,1.7459882720290324324556726117747
411,1.7464788040465622124414775983146
412,1.7469681443002762293648950384267
413,1.7474562985716073375108341033677
414,1.7479432726000434416795666885494
415,1.7484290720835334032779980730024
416,1.7489137026788865057942153098882
417,1.7493971700021683281225226669119
418,1.7498794796290901889557983061665
419,1.7503606370953964407373491549104
420,1.7508406478972445950743641021721
421,1.7513195174915822317774612403414
422,1.7517972512965199731085488297531
423,1.7522738546916983593576629256342
424,1.7527493330186522394530983556126
425,1.7532236915811690559446337735358
426,1.7536969356456446311794013990462
427,1.7541690704414339392791552945791
428,1.7546401011611968775857609792527
429,1.7551100329612429499404981711902
430,1.7555788709618677238814616386618
431,1.7560466202476885653907123198045
432,1.7565132858679768006825099475699
433,1.7569788728369816429070256537378
434,1.7574433861342569816827019112765
435,1.7579068307049788591076485492383
436,1.7583692114602615332160995996941
437,1.7588305332774702902246227119866
438,1.7592908010005299876068167597896
439,1.7597500194402300092753724002090
440,1.7602081933745267040587455793752
441,1.7606653275488404672982341017092
442,1.7611214266763510291850535405810
443,1.7615764954382905975049772364160
444,1.7620305384842294741333176703553
445,1.7624835604323634759107552201938
446,1.7629355658697941842197845302857
447,1.7633865593528091924009967516667
448,1.7638365454071555691806186379574
449,1.7642855285283143785834789510057
450,1.7647335131817684087412980490230
451,1.7651805038032706126594895526871
452,1.7656265047991061022583308431774
453,1.7660715205463534387281877807110
454,1.7665155553931416081146877702621
455,1.7669586136589063059727906675136
456,1.7674006996346408280549805716359
457,1.7678418175831462627063660538232
458,1.7682819717392773808284497284551
459,1.7687211663101867373010815566316
460,1.7691594054755666261702857179188
461,1.7695966933878867392902006309810
462,1.7700330341726307414335179868950
463,1.7704684319285303656041446903182
464,1.7709028907277951894208595665980
465,1.7713364146163420612694461498812
466,1.7717690076140213068822473653397
467,1.7722006737148389968225698501282
468,1.7726314168871802904756860986241
469,1.7730612410740263332039550682950
470,1.7734901501931722311666259203772
471,1.7739181481374403708709397759449
472,1.7743452387748933810253639835262
473,1.7747714259490420875557664090275
474,1.7751967134790559657368007858951
475,1.7756211051599650121505771326232
476,1.7760446047628655502349705725899
477,1.7764672160351203023746297520317
478,1.7768889427005574044785990173838
479,1.7773097884596672523834558071184
480,1.7777297569897975746175805489202
481,1.7781488519453452823543248969213
482,1.7785670769579486652939475687849
483,1.7789844356366753134230400541537
484,1.7794009315682085843569612192998
485,1.7798165683170340930914828549090
486,1.7802313494256208089054306659136
487,1.7806452784146036081449704598848
488,1.7810583587829618793228239413983
489,1.7814705940081974085782150538259
490,1.7818819875465094084866553008238
491,1.7822925428329688243645109260649
492,1.7827022632816905061141509265439
493,1.7831111522860032204755405781478
494,1.7835192132186185975789793716942
495,1.7839264494317972041468063985602
496,1.7843328642575149876148667789608
497,1.7847384610076257765419781771319
498,1.7851432429740237824051246944310
499,1.7855472134288035999437939035077
500,1.785950375624419836364740224410
501,1.786352732793842115254541935025
502,1.786754288150712910186471537705
503,1.787155044889499675949225912428
504,1.787555006185649121033114511226
505,1.787954175195736468632454225569
506,1.788352555057615436042261898924
507,1.788750148890566780261653937570
508,1.789146959795445049545273012175
509,1.789542990854821771570503296303
510,1.789938245133131131232071714190
511,1.790332725676811368911484217400
512,1.790726435514445799186560384631
513,1.791119377656902065487132806631
514,1.791511555097470306926942445502
515,1.791902970812000611378531198435
516,1.792293627759037964947414394081
517,1.792683528879955772403938042807
518,1.793072677099089733778744445512
519,1.793461075323868858885734644262
520,1.793848726444946476595997332892
521,1.794235633336328033911798209376
522,1.794621798855499960861640407561
523,1.795007225843556038194760499043
