Eigenstate,Potential Energy
1,0.500000000040334641330264470019411881
2,0.64623093791439813695882432661650115
3,0.73633761047834955739051239900457630
4,0.79966527942508805396431062557234554
5,0.8480465780760057317196405811080723
6,0.8870660011880278867601991278205950
7,0.9197208302003851697776224547366714
8,0.9477838514905878539105481028256413
9,0.9723835640652490117230187185178527
10,0.9942802220731566396338978406174939
11,1.0140093956555012965046190309945754
12,1.0319621801170273662652184222660807
13,1.0484327055236355434563601908982590
14,1.0636476695585505118656251269539383
15,1.0777854533365095395556275371632456
16,1.090988926274209941466950086125880
17,1.103374279551815073698831266330051
18,1.115037277119154996395333224575096
19,1.126057778799704985391017292698183
20,1.136503077924522651003356777569157
21,1.146430407413945633042759801219971
22,1.155888850936332132544524631789777
23,1.164920820844585877413050320828015
24,1.173563215576578526009496055143749
25,1.181848336451076253430824052547817
26,1.189804621475327658978556832462938
27,1.197457238307639729500837124288122
28,1.204828567616417782359279199664013
29,1.211938600282117489003512662175809
30,1.218805266239069509943232301273245
31,1.225444708608198771187938155427767
32,1.231871513693760827038722929950176
33,1.238098905107569949656095151593324
34,1.244138908533647319437499041754970
35,1.250002492307022624375792733133959
36,1.255699687946943497909053351467851
37,1.261239693980662676179694241472166
38,1.266630965763554012427697559293566
39,1.271881293503459836688617850044450
40,1.276997870301351365396378911059617
41,1.281987351703633591751857750926743
42,1.286855908006433486200229092630210
43,1.291609270345723991434867767486532
44,1.296252771439042280835486245012385
45,1.300791381706991180247267889738363
46,1.305229741389576370411926743190290
47,1.309572189178955375028780693886232
48,1.313822787812587975175211910746612
49,1.317985347006115146919113286469345
50,1.32206344405117090530271072846612
51,1.32606044235786447540483087925388
52,1.32997950818332499688946526255743
53,1.33382362575525084990271447290179
54,1.33759561097184455872434312733505
55,1.34129812383603873706854202248043
56,1.34493367976184396880357202252608
57,1.34850465987345055274115567612259
58,1.35201332040291885385584538423146
59,1.35546180127953905601947589032679
60,1.35885213399291660363387564462837
61,1.36218624880227539204049315218512
62,1.36546598135616976147236667418700
63,1.36869307877955446029331103414236
64,1.37186920527884926334727920147009
65,1.37499594731010009126816200687341
66,1.37807481835049113754620125086016
67,1.38110726330920021882149514033626
68,1.38409466260983340306654385919473
69,1.38703833597336229959311283146497
70,1.38993954592755912655449143580826
71,1.39279950106632596788342159796456
72,1.39561935908001638922578780878207
73,1.39840022957579457602700982512356
74,1.40114317670525830837502841407686
75,1.40384922161492098610094859816066
76,1.40651934473369836088296750324570
77,1.40915448791024323368121371724467
78,1.41175555641180557765084439417570
79,1.41432342079524872668847250769299
80,1.41685891865991414412247173955540
81,1.41936285629117794458118299739444
82,1.42183601020278089151937455873633
83,1.42427912858532485909365304462403
84,1.42669293266770445536138648946366
85,1.42907811799768322760395464024705
86,1.43143535564730800518573772497398
87,1.43376529334839746456050929875884
88,1.43606855656291762330099217401190
89,1.43834574949267346786590768538185
90,1.44059745603240270308954494494949
91,1.44282424067003615932815812646891
92,1.44502664933760109565829816881050
93,1.44720521021598138246663684972433
94,1.44936043449650561803260802125974
95,1.45149281710211307967630690769858
96,1.45360283737064558792744172408933
97,1.45569095970262902006181032438411
98,1.45775763417573533505670634497578
99,1.45980329712796249982788994728390
100,1.46182837171142336619437528266055
101,1.46383326841850524386300519596827
102,1.46581838558203634000362683597741
103,1.46778410985098732237273144534001
104,1.46973081664312899823325315511937
105,1.47165887057597402756097971181135
106,1.47356862587723982478460177002743
107,1.47546042677599172135088352053701
108,1.47733460787554622185206512167944
109,1.47919149450914559291852842558257
110,1.48103140307935260395458603446961
111,1.48285464138204837759682532457912
112,1.48466150891586687414097342656879
113,1.48645229717784399838910508258447
114,1.48822728994601055961277745412946
115,1.48998676354961786682506907326759
116,1.49173098712763640990628104312048
117,1.49346022287613636412135025033391
118,1.49517472628511762446134923895626
119,1.49687474636532336252535349387480
120,1.49856052586554525642388161161366
121,1.50023230148089027694080194873722
122,1.50189030405246000005799612842775
123,1.50353475875886122301505243194630
124,1.50516588529994898126746711487746
125,1.50678389807317349744394858558407
126,1.50838900634288739610578003646896
127,1.50998141440294894022473096538083
128,1.51156132173293445810632191052708
129,1.51312892314826105624699962541117
130,1.51468440894450233174654715566813
131,1.51622796503616439377908371226431
132,1.51775977309017452642527804827265
133,1.51928001065432304358406153157300
134,1.52078885128088761072392025189895
135,1.52228646464565119989090325830665
136,1.52377301666252115686014657882957
137,1.52524866959394355137458169929078
138,1.52671358215729336942328700406756
139,1.52816790962741900060694053828695
140,1.52961180393550402766916510286955
141,1.53104541376440476778276950259590
142,1.53246888464061394191292656997424
143,1.53388235902299219840984462267176
144,1.53528597638840203734681859378619
145,1.53667987331437449436004984636689
146,1.53806418355893107399619278132620
147,1.53943903813767521960730465268533
148,1.54080456539826864879958968741300
149,1.54216089109239435536822662661417
150,1.54350813844530991857307650706699
151,1.54484642822308703398686323210216
152,1.54617587879762756506214373432060
153,1.54749660620954506508723665401545
154,1.54880872422899566874901319428158
155,1.55011234441453658927086769223548
156,1.55140757617009008746421963156544
157,1.55269452680008395927146894839729
158,1.55397330156284035987640473898927
159,1.5552440037222766371897408289171
160,1.5565067345979845122219125681497
161,1.5577615936137461024365149104440
162,1.5590086783445462491581813205720
163,1.5602480845621360023065448692897
164,1.5614799062792018990239313274530
165,1.5627042357921896363868784222804
166,1.5639211637228326537625650882112
167,1.5651307790584328571022535149754
168,1.5663331691909361740579281644614
169,1.5675284199548480019849200011718
170,1.5687166156640282919193388627700
171,1.5698978391474064629631896748876
172,1.5710721717836540137081266848175
173,1.5722396935348502330008928171313
174,1.5734004829791768535373889517665
175,1.5745546173426756331908901554468
176,1.5757021725300985703999197373717
177,1.5768432231548840141259161446095
178,1.5779778425682878227496829779287
179,1.5791061028876960168250204814109
180,1.5802280750241498720612124813257
181,1.5813438287091061010932788210116
182,1.5824534325204598193979427250252
183,1.5835569539078533446020731371728
184,1.5846544592172950706922484861436
185,1.5857460137151102252214786841095
186,1.5868316816112444781047839863659
187,1.5879115260819442024738110760176
188,1.5889856092918288238771354171798
189,1.5900539924153789888864079329011
190,1.5911167356578562041550889580704
191,1.5921738982756731684506933901181
192,1.5932255385962311798316523335347
193,1.5942717140372429217845072760837
194,1.5953124811255539690710803702758
195,1.5963478955154809456109642455207
196,1.5973780120066800262653495538123
197,1.5984028845615601578086921955456
198,1.5994225663222551610327106673686
199,1.6004371096271675478017006902754
200,1.6014465660270979932234916253474
201,1.6024509863009714393181575239539
202,1.6034504204711732062998426615837
203,1.6044449178185057661565550217940
204,1.6054345268967777933936461997657
205,1.6064192955470354582561690002362
206,1.6073992709114489811310430944060
207,1.6083744994468603187580094800442
208,1.6093450269380062036578722856422
209,1.6103108985104222796093442526085
210,1.6112721586430398287774610197875
211,1.6122288511804824494536999981708
212,1.6131810193450729115339547646454
213,1.6141287057485545676262987374667
214,1.6150719524035422954759444974835
215,1.6160108007347021779363098172315
216,1.6169452915896738749407189762847
217,1.6178754652497396465142746638058
218,1.6188013614402489992730252247737
219,1.6197230193408022293437367766651
220,1.6206404775952053698287642270439
221,1.6215537743211944451032747320395
222,1.6224629471199462293071768650632
223,1.6233680330853690698598502873902
224,1.6242690688131888352926989029916
225,1.6251660904098325439392677648036
226,1.6260591335011132114199786059467
227,1.6269482332407245597653099921509
228,1.6278334243185473983732059068475
229,1.6287147409687748289409397832972
230,1.6295922169778609606045118534852
231,1.6304658856922949245451269120183
232,1.6313357800262105969721591478207
233,1.6322019324688270159756800399999
234,1.6330643750917356383032857334744
235,1.6339231395560276071496122060603
236,1.6347782571192707297153708835432
237,1.6356297586423397846508534469462
238,1.6364776745961018903832659811856
239,1.6373220350679623698950620374394
240,1.6381628697682732653577958370324
241,1.6390002080366087839566529688216
242,1.6398340788479105308417885003365
243,1.6406645108185065599665292653724
244,1.6414915322120059310331811958442
245,1.6423151709450731456435230939953
246,1.6431354545930849812064125210668
247,1.6439524103956711043730495392781
248,1.6447660652621460445394131187787
249,1.6455764457768274959156225287396
250,1.6463835782042513322684104350212
251,1.6471874884942812337480323621996
252,1.6479882022871157236996119469650
253,1.6487857449181976870618071497020
254,1.6495801414230260266101212326693
255,1.6503714165418733364737712213001
256,1.6511595947244096776937599894659
257,1.6519447001342388465657533607333
258,1.6527267566533435798272140815436
259,1.6535057878864464995392859602643
260,1.6542818171652871833683374095859
261,1.6550548675528156733246787523873
262,1.6558249618473071476906250990937
263,1.6565921225863966060254226779886
264,1.6573563720510390174054719492783
265,1.6581177322693934564328174994927
266,1.6588762250206333940496147831222
267,1.6596318718386863556962128487636
268,1.6603846940159029798174970665860
269,1.6611347126066597459218934901308
270,1.6618819484308910956232447117320
271,1.6626264220775602299073717223453
272,1.6633681539080625614731066995612
273,1.6641071640595692645478484132848
274,1.6648434724483081304805038306822
275,1.6655770987727856039769982448350
276,1.6663080625169482776161494446369
277,1.6670363829532913279453530699090
278,1.6677620791459056470891805420506
279,1.6684851699534751723252636709308
280,1.6692056740322165064825089905957
281,1.6699236098387687179748467137231
282,1.6706389956330308167281408494449
283,1.6713518494809501184367151718422
284,1.6720621892572586536744963060718
285,1.6727700326481644291118686032787
286,1.6734753971539935655729271384648
287,1.6741783000917883722151291612317
288,1.6748787585978577585975228240157
289,1.6755767896302846326922735681505
290,1.6762724099713910173571513929769
291,1.6769656362301587262004318086162
292,1.6776564848446084837351012011892
293,1.6783449720841413955880061548455
294,1.6790311140518378056701266031028
295,1.6797149266867156274429641445920
296,1.6803964257659557348333379792840
297,1.6810756269070843445122536122651
298,1.6817525455701217062807639492912
299,1.6824271970596939044097197883722
300,1.6830995965271095205286207026326
301,1.6837697589724015694902501730264
302,1.6844376992463368011336525027496
303,1.6851034320523895410634621915871
304,1.6857669719486836479649752786474
305,1.6864283333499040159709624218078
306,1.6870875305291768852900521836376
307,1.6877445776199161430601119940496
308,1.6883994886176430928652054058498
309,1.6890522773817757821923399155846
310,1.6897029576373882229844789466549
311,1.6903515429769431002033674350618
312,1.6909980468619954815460352716008
313,1.6916424826248689210741606674004
314,1.6922848634703057610414023824985
315,1.6929252024770909515732781538810
316,1.6935635125996507638532327447804
317,1.6941998066696239354310760111200
318,1.6948340973974105989116263397330
319,1.6954663973736961355971816040049
320,1.6960967190709499553545240401074
321,1.6967250748449031216535417083893
322,1.6973514769360009362212656691045
323,1.6979759374708339973630475924447
324,1.6985984684635467091041413958902
325,1.6992190818172250031458993389137
326,1.6998377893252615108768585119236
327,1.7004546026727010062075796621262
328,1.7010695334375633084385547033247
329,1.7016825930921486200333887441140
330,1.7022937930043217309779656439031
331,1.7029031444387765283162802773271
332,1.7035106585582818721021905500646
333,1.7041163464249092163190650849201
334,1.7047202190012401587887705804354
335,1.7053222871515582349998589284306
336,1.7059225616430210139043512461958
337,1.7065210531468153679274503664160
338,1.7071177722392969760400538750003
339,1.7077127294031101243997508525388
340,1.7083059350282938958991144695881
341,1.7088973994133704621982406454413
342,1.7094871327664179753897225765616
343,1.7100751452061276970850692838735
344,1.7106614467628453586289728244425
345,1.7112460473795985717761928123515
346,1.7118289569131077646255142359234
347,1.7124101851347842081704726570956
348,1.7129897417317119451916072607790
349,1.7135676363076171664156767232336
350,1.7141438783838225762846759619518
351,1.7147184774001888359394659694182
352,1.7152914427160427657860085431112
353,1.7158627836110915920256066944722
354,1.7164325092863246516280495961689
355,1.7170006288649029210361575083050
356,1.7175671513930345783939211432925
357,1.7181320858408398383489187337970
358,1.7186954411032043034401344800191
359,1.7192572260006165772239508829209
360,1.7198174492799990770686950840109
361,1.7203761196155237915008899645590
362,1.7209332456094194637174596291553
363,1.7214888357927647968911762904819
364,1.7220428986262727052786564141988
365,1.7225954425010638475149493511548
366,1.7231464757394283197799767891673
367,1.7236960065955784008650545036787
368,1.7242440432563891378869358133369
369,1.7247905938421314052134186686876
370,1.7253356664071931497950743553116
371,1.7258792689407916762328055687432
372,1.7264214093676759280813145982103
373,1.7269620955488187321253960095726
374,1.7275013352821033141306781076031
375,1.7280391363029947776611487453481
376,1.7285755062852080022024770317614
377,1.7291104528413637498256135430185
378,1.7296439835236361478257309341968
379,1.7301761058243933871635714222573
380,1.7307068271768283934987934610858
381,1.7312361549555823462772549435639
382,1.7317640964773581640675895898143
383,1.7322906590015286308363937586143
384,1.7328158497307341268885335510924
385,1.7333396758114735857555401468174
386,1.7338621443346893357120917581755
387,1.7343832623363415752837286346644
388,1.7349030367979764195728751080143
389,1.7354214746472881921148615324251
390,1.7359385827586731513980015467637
391,1.7364543679537749690151980093293
392,1.7369688370020255678511730347923
393,1.7374819966211787938194078651489
394,1.7379938534778355022728372950350
395,1.7385044141879629159892472029505
396,1.7390136853174079056266617659600
397,1.7395216733824038225855116118637
398,1.7400283848500708924408009661458
399,1.7405338261389087347649754640738
400,1.7410380036192853093291794061699
401,1.7415409236139183376330056118039
402,1.7420425923983499450103906923066
403,1.7425430162014173440828599421015
404,1.7430422012057174526825629702021
405,1.7435401535480629117231717578838
406,1.7440368793199356120865444495910
407,1.7445323845679348472801478167769
408,1.7450266752942175950937570850672
409,1.7455197574569337893684074091487
410,1.7460116369706590963928020678145
411,1.7465023197068194559819671948714
412,1.7469918114941109698658005619577
413,1.7474801181189162164860946683593
414,1.7479672453257134160874120922588
415,1.7484531988174827301042485291486
416,1.7489379842561061245201249190278
417,1.7494216072627636457270603851617
418,1.7499040734183232721648725143402
419,1.7503853882637286202975930919774
420,1.7508655573003794868922439501127
421,1.7513445859905091798314621265755
422,1.7518224797575579191087949599223
423,1.7522992439865401441942997323512
424,1.7527748840244093415459035420097
425,1.7532494051804167716733947666371
426,1.7537228127264677026477928397719
427,1.7541951118974726347370540748425
428,1.7546663078916935299076665079284
429,1.7551364058710889586318070786362
430,1.7556054109616510261617226824413
431,1.7560733282537415819775139982749
432,1.7565401628024248619804160500345
433,1.7570059196277919013834683065378
434,1.7574706037152878162944596346257
435,1.7579342200160297777221827538760
436,1.7583967734471235790572124335308
437,1.7588582688919769584549650697740
438,1.7593187112006086582457763342475
439,1.7597781051899539027394876422839
440,1.7602364556441673656985570824288
441,1.7606937673149207873977222804098
442,1.7611500449216988049803050009372
443,1.7616052931520926438713384802039
444,1.7620595166620862896865647174270
445,1.7625127200763444713623570436868
446,1.7629649079884934799255366653090
447,1.7634160849614019921398021089207
448,1.7638662555274551173035491897603
449,1.7643154241888295077739081436326
450,1.7647635954177616857320851013553
451,1.7652107736568170893589344532140
452,1.7656569633191526798452105402838
453,1.7661021687887788523847938204302
454,1.7665463944208170401786778920463
455,1.7669896445417566354021402172355
456,1.7674319234497065242148847576164
457,1.7678732354146459316049223895028
458,1.7683135846786709720454913538912
459,1.7687529754562394199776921265075
460,1.7691914119344133425477464104626
461,1.7696288982730974444134965398988
462,1.7700654386052763377607759380240
463,1.7705010370372493413937757315785
464,1.7709356976488609698994910858707
465,1.7713694244937310817169263038254
466,1.7718022215994818169073473841452
467,1.7722340929679606052401847382815
468,1.7726650425754642603383399746031
469,1.7730950743729566366833000024623
470,1.7735241922862873741255979516243
471,1.7739524002164059971160380152555
472,1.7743797020395756663800907598478
473,1.7748061016075819340483148886713
474,1.7752316027479440063512660831425
475,1.7756562092641174367511028026775
476,1.7760799249357007634322142455398
477,1.7765027535186364242691300533484
478,1.7769246987454106253820375965808
479,1.7773457643252510527903525125656
480,1.7777659539443228218714596227001
481,1.7781852712659212156292846818875
482,1.7786037199306647806929987848073
483,1.7790213035566841611747785459786
484,1.7794380257398094902794149140106
485,1.7798538900537578166814040094199
486,1.7802689000503151506006962333556
487,1.7806830592595199785081754688409
488,1.7810963711898428430888196324610
489,1.7815088393283652167149934429975
490,1.7819204671409555316226674872449
491,1.7823312580724445011471302813086
492,1.7827412155467983202782543139867
493,1.7831503429672897206179525185690
494,1.7835586437166679738574848626999
495,1.7839661211573260363468885334778
496,1.7843727786314680792598101053113
497,1.7847786194612730899528828343255
498,1.7851836469490584898585686750766
499,1.7855878643774412663163954939880
500,1.785991275009498748901547758718
501,1.786393882088924776349786975135
502,1.786795688840188709321862220393
503,1.787196698468688757196651459870
504,1.787596914160907462793545464208
505,1.787996339084562192555668904334
506,1.788394976388756362346708174278
507,1.788792829204129246955050698862
508,1.789189900643004013333731540995
509,1.789586193799532208536690131676
510,1.789981711749840755657377814577
511,1.790376457552174688923485886073
512,1.790770434247039528220657330568
513,1.791163644857341908864115967724
514,1.791556092388529143171874944413
515,1.791947779828728088230816449809
516,1.792338710148881530345670858480
517,1.792728886302883161068200968639
518,1.793118311227712930359039519842
519,1.793506987843569558998505801591
520,1.793894919054003067427100116333
521,1.794282107746044116434012156202
522,1.794668556790334436086633292936
523,1.795054269041254780258963451577
