Eigenstate,Potential Energy
1,0.500000000069367433247805936561711597
2,0.64623093810390967695875889053926900
3,0.73633761103502717117321978668700936
4,0.79966528058459182644167942602981134
5,0.8480465800845209064766796593217767
6,0.8870660042960592483397080076964963
7,0.9197208346604719806284257725807654
8,0.9477838575563521983299479569971787
9,0.9723835719909544782308555382229449
10,0.9942802321134854417314690005559100
11,1.0140094080654342256319000001453551
12,1.0319621951517761478509866206324020
13,1.0484327234386037227762190564988252
14,1.0636476906093107602300366410962809
15,1.0777854777787908679726675428710790
16,1.090988954363891139117616845500447
17,1.103374311544922197024491856611965
18,1.115037313271861576102311935977505
19,1.126057819368334107206132223166952
20,1.136503123165550359753854171104526
21,1.146430457584005291830292928478847
22,1.155888906292219484969411708288978
23,1.164920881643264636761896017534109
24,1.173563282075186366100584086245466
25,1.181848408906931110457233690837632
26,1.189804700145934277765548048105663
27,1.197457323450696404609869223027601
28,1.204828659489823256683458717605309
29,1.211938699143977981389431689353926
30,1.218805372347705849930911321903392
31,1.225444822222153623855245936894349
32,1.231871635071805994631695309780734
33,1.238099034508713739505307056955846
34,1.244139046217141969831867114585000
35,1.250002638532371781752951744719136
36,1.255699842973909740044573499135945
37,1.261239858069275077103113080839643
38,1.266631139174115745625924341523772
39,1.271881476496555813824983995539629
40,1.276998063137855908312714979882163
41,1.281987554644718135958971073581968
42,1.286856121313574314420255466768308
43,1.291609494280709996053431194206144
44,1.296253006263982754364991033250587
45,1.300791627684323633105034295578373
46,1.305229998782074375485973514138413
47,1.309572458249736438645978603017549
48,1.313823068825121434206350601449250
49,1.317985640224230091856936668676410
50,1.32206374973906412923541276345645
51,1.32606076078010844888150626744461
52,1.32997983960487586873752495943975
53,1.33382397044145647411209930698965
54,1.33759596918845254756094061835183
55,1.34129849584920454062054599713185
56,1.34493406583813898120075000918599
57,1.34850506027987024531867453434466
58,1.35201373540689093556249617389942
59,1.35546223114893166139479313197099
60,1.35885257899604650870088516999513
61,1.36218670920791625848053001137433
62,1.36546645743356040946623849517513
63,1.36869357079840717042905846996647
64,1.37186971350935810800935249762744
65,1.37499647202294929593616285634920
66,1.37807535981686347244343960734250
67,1.38110782180078542136481203084873
68,1.38409523839883663157924180146229
69,1.38703892933251261875250822302626
70,1.38994015713011802505448435401507
71,1.39280013038609590880115306572026
72,1.39562000679134939358923046998525
73,1.39840089595360084008810770669147
74,1.40114386202501485510011012080905
75,1.40384992615268035139712373860721
76,1.40652006876609731508581887254458
77,1.40915523171451153883554340036901
78,1.41175632026577478112248747176862
79,1.41432420497736099165121426001223
80,1.41685972344923111746997180941679
81,1.41936368196738966281971407635438
82,1.42183685704621472520277393429727
83,1.42427999687695449636751103335760
84,1.42669382268915892518906304598637
85,1.42907903003125596325249335802307
86,1.43143628997596594855509909074849
87,1.43376625025579021194511133663442
88,1.43606953633338661317783101218679
89,1.43834675241126121130889883611667
90,1.44059848238486205741517325986794
91,1.44282529074283964558286193509477
92,1.44502772341795026056343196489453
93,1.44720630859181620544222905638762
94,1.44936155745651396392665373613832
95,1.45149396493574019783171140419106
96,1.45360401036810365822425911769996
97,1.45569215815490674657802616131739
98,1.45775885837460758799630715221168
99,1.45980454736600000637064932276637
100,1.46182964828200245092746762496058
101,1.46383457161581761946031200142535
102,1.46581971570109894882430230897522
103,1.46778546718765222965647743158452
104,1.46973220149409333757584834089262
105,1.47166028323878999935934291924097
106,1.47357006665032474834687418007847
107,1.47546189595863814137300419714051
108,1.47733610576793206996866952559683
109,1.47919302141234440504214474203713
110,1.48103295929534379412353866173299
111,1.48285622721372756905856939193872
112,1.48466312466705628840418683868438
113,1.48645394315330290298443172785235
114,1.48822896645144577530872791494396
115,1.48998847089169433505245462788571
116,1.49173272561398782115129751927195
117,1.49346199281537584805446186908272
118,1.49517652798684850257606348372895
119,1.49687658014014996406814210594992
120,1.49856239202508379840378495587752
121,1.50023420033777980901442920931783
122,1.50189223592037341509326184789544
123,1.50353672395251633414422979657691
124,1.50516788413511966624805495157890
125,1.50678593086670091115331464314913
126,1.50839107341269125200355348939421
127,1.50998351606803886162474146973744
128,1.51156345831342140010801220075789
129,1.51313109496536879918433395073112
130,1.51468661632057904702073530130002
131,1.51623020829469428294974364832341
132,1.51776205255578953444341877380107
133,1.51928232665281464705843790190851
134,1.52079120413921868212145178813771
135,1.52228885469196794858056340590932
136,1.52377544422616514791864528364841
137,1.52525113500546380308126661449834
138,1.52671608574845853038111098723672
139,1.52817045173122960743542859035112
140,1.52961438488620484422501439330160
141,1.53104803389749720687316815656826
142,1.53247154429286857047654886431043
143,1.53388505853246132715034757348214
144,1.53528871609443239581362856622065
145,1.53668265355761999248151279212186
146,1.53806700468136565108025504771400
147,1.53944190048260578183566074804799
148,1.54080746931034809625141592014560
149,1.54216383691763469962083228859970
150,1.54351112653109549193723371562815
151,1.54484945891818779144603520419484
152,1.54617895245221247999568093459723
153,1.54749972317519561986926903211707
154,1.54881188485871944132595127030221
155,1.55011554906278093683240782024499
156,1.55141082519275592833452310463841
157,1.55269782055453965415891478604246
158,1.55397664040793569363285464034522
159,1.5552473880183569022423892772138
160,1.5565101647069046948533516579219
161,1.5577650698988851731013053312796
162,1.5590122011708215580372105773186
163,1.5602516542960177813132745377490
164,1.5614835232887278714900338379633
165,1.5627079004469797356682850798203
166,1.5639248763941038520201665404153
167,1.5651345401190141055256271123355
168,1.5663369790152834558144561848014
169,1.5675322789190594991905318895167
170,1.5687205241458596679419184979044
171,1.5699017975262862613838931521406
172,1.5710761804406991752809470100771
173,1.5722437528528817319655465928009
174,1.5734045933427354546560112127283
175,1.5745587791380377708943658536359
176,1.5757063861452923514453909103707
177,1.5768474889797053451827009862339
178,1.5779821609943166643471409194919
179,1.5791104743083127651120652554261
180,1.5802324998345518698437997084113
181,1.5813483073063242796329566133118
182,1.5824579653033754724715292570836
183,1.5835615412772150363398926528463
184,1.5846591015757356787297206598603
185,1.5857507114671641207168292552202
186,1.5868364351633648441932995547702
187,1.5879163358425204927477685013622
188,1.5889904756712043624986838691650
189,1.5900589158258687139597445097355
190,1.5911217165137645560030436818529
191,1.5921789369933121244604490292070
192,1.5932306355939384375539920890869
193,1.5942768697354002319902916819240
194,1.5953176959466056204895159220520
195,1.5963531698839524030944733441093
196,1.5973833463491967241462814043310
197,1.5984082793068664502348217253346
198,1.5994280219012334310889301791990
199,1.6004426264728574772481630060853
200,1.6014521445747159947011472249357
201,1.6024566269879302528958718520142
202,1.6034561237371016622597534116050
203,1.6044506841052687159366472905639
204,1.6054403566484962106309497267067
205,1.6064251892101067118961112179514
206,1.6074052289345672825940118749736
207,1.6083805222810373451773637533426
208,1.6093511150365918992288252454393
209,1.6103170523291258371130844792804
210,1.6112783786399508533700793540719
211,1.6122351378160923068355745317623
212,1.6131873730822962626411871709599
213,1.6141351270527510920122420365956
214,1.6150784417425386055781438087264
215,1.6160173585788139264509965874387
216,1.6169519184117280575551414294785
217,1.6178821615250971022750027591606
218,1.6188081276468271108968911363426
219,1.6197298559590978258074407162774
220,1.6206473851083178336019491804211
221,1.6215607532148490264202275646940
222,1.6224699978825175699022741357211
223,1.6233751562079049386226227212307
224,1.6242762647894340783297095910851
225,1.6251733597362532515614823989525
226,1.6260664766769211046067086079204
227,1.6269556507679015986876568421459
228,1.6278409167018706155941614361246
229,1.6287223087158413899418550184980
230,1.6295998605991134543222733735649
231,1.6304736057010468866386836832964
232,1.6313435769386722685725860711762
233,1.6322098068041313407091112756115
234,1.6330723273719645004124671112569
235,1.6339311703062383135767785438201
236,1.6347863668675227390456980989601
237,1.6356379479197216858547285419729
238,1.6364859439367586343329345809257
239,1.6373303850091227566709039689832
240,1.6381713008502776903991610553031
241,1.6390087208029372461516304704184
242,1.6398426738452109056920284944675
243,1.6406731885966231410042254631207
244,1.6415002933240082427094803086810
245,1.6423240159472850309501973638772
246,1.6431443840451139673366921788916
247,1.6439614248604380497707264971573
248,1.6447751653059150707303998381864
249,1.6455856319692362075619465056703
250,1.6463928511183413289303760975780
251,1.6471968487065289168873423546834
252,1.6479976503774634025035717081327
253,1.6487952814700849867172322986067
254,1.6495897670234216027051489035513
255,1.6503811317813068992544426749079
256,1.6511694001970043299540867187027
257,1.6519545964377437390009353324764
258,1.6527367443891668877316171385364
259,1.6535158676596887247843860779061
260,1.6542919895847747856494929319949
261,1.6550651332311350347200443173298
262,1.6558353214008388746319502826626
263,1.6566025766353501728361931661297
264,1.6573669212194877556192737412362
265,1.6581283771853098941638202115545
266,1.6588869663159249497458425840756
267,1.6596427101492313906657346230552
268,1.6603956299815872139806596559687
269,1.6611457468714130413028395951093
270,1.6618930816427246121585132146834
271,1.6626376548886039582126179402628
272,1.6633794869746032372748060924485
273,1.6641185980420886695526125970631
274,1.6648550080115217845222123780373
275,1.6655887365856818533499026628469
276,1.6663198032528277845722981477591
277,1.6670482272898069664049753459584
278,1.6677740277651028096838999772662
279,1.6684972235418324939678082577054
280,1.6692178332806870097304191469273
281,1.6699358754428213855307107671668
282,1.6706513682926925964957884547435
283,1.6713643299008483666308652540692
284,1.6720747781466640215596703723071
285,1.6727827307210341990279793788028
286,1.6734882051290154419856188393816
287,1.6741912186924247336125764571641
288,1.6748917885523903761401220627295
289,1.6755899316718598616068089380594
290,1.6762856648380654671553478593138
291,1.6769790046649454158894913080722
292,1.6776699675955234882790681287207
293,1.6783585699042509899701549390223
294,1.6790448276993061129995943296569
295,1.6797287569248527776443761928726
296,1.6804103733632665405542930620104
297,1.6810896926373175009816234051461
298,1.6817667302123195219506981777362
299,1.6824415013982425693156702273436
300,1.6831140213517899194047429138188
301,1.6837843050784406467830528944714
302,1.6844523674344594851625694299829
303,1.6851182231288712346864301089216
304,1.6857818867254032932170517550533
305,1.6864433726443977402568171416700
306,1.6871026951646922368246097784179
307,1.6877598684254669233685274937267
308,1.6884149064280647942716470994891
309,1.6890678230377816383467199392506
310,1.6897186319856258805989585099557
311,1.6903673468700519202949646717880
312,1.6910139811586644786084664399756
313,1.6916585481898953487305374328350
314,1.6923010611746543528606085512127
315,1.6929415331979538258665015175646
316,1.6935799772205080014025077690636
317,1.6942164060803048392399624152799
318,1.6948508324941556452089831683683
319,1.6954832690592196254674911864555
320,1.6961137282545033765141601035032
321,1.6967422224423392300403323532093
322,1.6973687638698385672160247613050
323,1.6979933646703236166138049838228
324,1.6986160368647367130821774902838
325,1.6992367923630287797196773886982
326,1.6998556429655252703525475490799
327,1.7004726003642723934500882879808
328,1.7010876761443608068539070461420
329,1.7017008817852317583644215661006
330,1.7023122286619621040390611389209
331,1.7029217280465296429702733673198
332,1.7035293911090598299613455617277
333,1.7041352289190542448375529129910
334,1.7047392524465990025990041479830
335,1.7053414725635574195362088209240
336,1.7059419000447429935514562188519
337,1.7065405455690755711270664463555
338,1.7071374197207217599923723889355
339,1.7077325329902156521974988629525
340,1.7083258957755659491436254321268
341,1.7089175183833452023574226696990
342,1.7095074110297636673743435884461
343,1.7100955838417274087401639719314
344,1.7106820468578806500605375278312
345,1.7112668100296341886626823971365
346,1.7118498832221773498969494007815
347,1.7124312762154770466730407457631
348,1.7130109987052607561992853604671
349,1.7135890603039869590947085101019
350,1.7141654705418005834694915326548
351,1.7147402388674755418318788688751
352,1.7153133746493440434519804712120
353,1.7158848871762119668272423895245
354,1.7164547856582617070009268140910
355,1.7170230792279428632942700176416
356,1.7175897769408489775301396531909
357,1.7181548877765835620802228473254
358,1.7187184206396146620419674666834
359,1.7192803843601136969932346566914
360,1.7198407876947875205589605361340
361,1.7203996393276954429824135932692
362,1.7209569478710576986286676784223
363,1.7215127218660499543704625186312
364,1.7220669697835888831911636292551
365,1.7226197000251070397244154813218
366,1.7231709209233159157546152051774
367,1.7237206407429600680533202172178
368,1.7242688676815591076544177944769
369,1.7248156098701421834908869070420
370,1.7253608753739706739557636556109
371,1.7259046721932519400945921773542
372,1.7264470082638430973085954328674
373,1.7269878914579447726976334501102
374,1.7275273295847891569435440660353
375,1.7280653303913130427294864887503
376,1.7286019015628273063498491441285
377,1.7291370507236746221698011756483
378,1.7296707854378785777962544745243
379,1.7302031132097860302312337944315
380,1.7307340414846994602428890730990
381,1.7312635776495022008750614231910
382,1.7317917290332736587581248843734
383,1.7323185029078992033864451794154
384,1.7328439064886696885755409696965
385,1.7333679469348742278786121961594
386,1.7338906313503868831481725677925
387,1.7344119667842430161235969131338
388,1.7349319602312092403997519019630
389,1.7354506186323476490260121572810
390,1.7359679488755715074202976731748
391,1.7364839577961927291267254815842
392,1.7369986521774647433929985591387
393,1.7375120387511182286702503992000
394,1.7380241241978882937508876115788
395,1.7385349151480359640605015999506
396,1.7390444181818636246190013842800
397,1.7395526398302240502445003506974
398,1.7400595865750230318131085327075
399,1.7405652648497141650577854030619
400,1.7410696810397901025707990053217
401,1.7415728414832663186539060376807
402,1.7420747524711581329686969336062
403,1.7425754202479538144803039683172
404,1.7430748510120816595543425641930
405,1.7435730509163685104393343849293
406,1.7440700260684958239731266506837
407,1.7445657825314504080500511362466
408,1.7450603263239673298870814246682
409,1.7455536634209678580178265319950
410,1.7460457997539949533733774244558
411,1.7465367412116405703570082477406
412,1.7470264936399683514206445221935
413,1.7475150628429327951353355970256
414,1.7480024545827913225576474981768
415,1.7484886745805135268308803307202
416,1.7489737285161840366507652524671
417,1.7494576220294018431042555971759
418,1.7499403607196732541601052603311
419,1.7504219501468027563907924102535
420,1.7509023958312767669363000044093
421,1.7513817032546442290101159850115
422,1.7518598778598933336895479184803
423,1.7523369250518222052950084424776
424,1.7528128501974071652778094467405
425,1.7532876586261649551933530793119
426,1.7537613556305125268459651205693
427,1.7542339464661218855130310037388
428,1.7547054363522700012369018861265
429,1.7551758304721877019079900092849
430,1.7556451339734004116067204973554
431,1.7561133519680682392554717412175
432,1.7565804895333225685206757447891
433,1.7570465517115944883233204070947
434,1.7575115435109461633896523603327
435,1.7579754699053929700391934408790
436,1.7584383358352242997733573829072
437,1.7589001462073211936252044275573
438,1.7593609058954697909798698485532
439,1.7598206197406712758402619939036
440,1.7602792925514493934702977411958
441,1.7607369291041526990233110509248
442,1.7611935341432551035999882689375
443,1.7616491123816543672700942139940
444,1.7621036685009631603137828260005
445,1.7625572071518020252706593837714
446,1.7630097329540852661193750450915
447,1.7634612504973069357792740349591
448,1.7639117643408201422087333772250
449,1.7643612790141175157245323733992
450,1.7648097990171049921551623138757
451,1.7652573288203764171521417128318
452,1.7657038728654818152834726424972
453,1.7661494355651950693217017116760
454,1.7665940213037774010642023432089
455,1.7670376344372402800150538863126
456,1.7674802792936030594385708142611
457,1.7679219601731500380691830712000
458,1.7683626813486833460117351554448
459,1.7688024470657741714658300934584
460,1.7692412615430119733911541736340
461,1.7696791289722495326806630051958
462,1.7701160535188470578079815925306
463,1.7705520393219139517138097664951
464,1.7709870904945464038968934778525
465,1.7714212111240647795933381373434
466,1.7718544052722479399639386931543
467,1.7722866769755637771139358536318
468,1.7727180302454009829773242506132
469,1.7731484690682945322449412112868
470,1.7735779974061524074433313652681
471,1.7740066191964778369407152209387
472,1.7744343383525913472450200367044
473,1.7748611587638479843563123515271
474,1.7752870842958572121279580752978
475,1.7757121187906944144486496604178
476,1.7761362660671165192288709556270
477,1.7765595299207720814619566484884
478,1.7769819141244105057482584880905
479,1.7774034224280893021738925148239
480,1.7778240585593797747629466574147
481,1.7782438262235696981296388233357
482,1.7786627291038665560077081839448
483,1.7790807708615967266681568525397
484,1.7794979551364034401347217396650
485,1.7799142855464449893655110444902
486,1.7803297656885877856357701541297
487,1.7807443991386011124850668684422
488,1.7811581894513481804642846843892
489,1.7815711401609767166728524906717
490,1.7819832547811069581998692292430
491,1.7823945368050191898976615643494
492,1.7828049897058394209976923687845
493,1.7832146169367231820760399866201
494,1.7836234219310385430933005431189
495,1.7840314081025465518760763595340
496,1.7844385788455823445300759455504
497,1.7848449375352326205799208247646
498,1.7852504875275134355623542818447
499,1.7856552321595458160941450466325
500,1.786059174749731335799429213725
501,1.786462318597923406259978421737
502,1.786864666985601746514555027769
503,1.787266223176041507843592997666
504,1.787666990414484906522165718107
505,1.788066971928308221115197670940
506,1.788466170927189893792746069512
507,1.788864590603277593339963087406
508,1.789262234131353889776137408455
509,1.789659104668998781713972439674
510,1.790055205356755140244053681928
511,1.790450539318290311297660325489
512,1.790845109660557787880436760624
513,1.791238919473957579463442799680
514,1.791631971832495966890695691881
515,1.792024269793945029373939426949
516,1.792415816400000166610769169595
517,1.792806614676436703860818499611
518,1.793196667633267378870172278451
519,1.793585978264897506513876998814
520,1.793974549550280692519737303820
521,1.794362384453071906321690813672
522,1.794749485921782204522656962407
523,1.795135856889931557894179993709
