Eigenstate,Potential Energy
1,0.500000000013139763491333703745110946
2,0.64623093773688414332503746406462370
3,0.73633760995691650931133961704998226
4,0.79966527833900251006685653614925532
5,0.8480465761946832191277508708802314
6,0.8870659982768483712414872014289842
7,0.9197208260228361636436636862811867
8,0.9477838458091585306546271019411042
9,0.9723835566418462917438434392630968
10,0.9942802126693166683802804113711769
11,1.0140093840325046028278622913658975
12,1.0319621660359649377703881105489231
13,1.0484326887454481809815873251609413
14,1.0636476498440528061500039787412982
15,1.0777854304464045708495077409236095
16,1.090988899969098151825921024392223
17,1.103374249592199348744987448406252
18,1.115037243265443205103391873800734
19,1.126057740812210768860252139618820
20,1.136503035563464976036336545956775
21,1.146430360439447455693110000958358
22,1.155888799108418407967354907902423
23,1.164920763923181081205598443903365
24,1.173563153321503804664896580292508
25,1.181848268622046289077314031588922
26,1.189804547831947311025514822809083
27,1.197457158609400499875834925453482
28,1.204828481622694139582265111895433
29,1.211938507752163078018118253491589
30,1.218805166932013268484686310639147
31,1.225444602283040968883418172414001
32,1.231871400109369039975974936518820
33,1.238098784022674980516976261384078
34,1.244138779706839071260455497370378
35,1.250002355496745934431490205846849
36,1.255699542911493936935147677228719
37,1.261239540478182317242390574418287
38,1.266630803552027172899024550956262
39,1.271881122340708796204112966305581
40,1.276997689945032062154100259905691
41,1.281987161911231299104631169475117
42,1.286855708535258471158863509191271
43,1.291609060952907156425573207763388
44,1.296252551881530789828039932858166
45,1.300791151741544070182282531289049
46,1.305229500772760148698569403452504
47,1.309571937667139603752767066714559
48,1.313822525161940842546122489979642
49,1.317985072972599026392488783810912
50,1.32206315839053790273291976501798
51,1.32606014482565196451695158170383
52,1.32997919853485114330051267387204
53,1.33382330374561012387281869681411
54,1.33759527635590323677559042609629
55,1.34129777636843039257214220018735
56,1.34493331919696495160386212115357
57,1.34850428596545545785698862442131
58,1.35201293290571597927536948630035
59,1.35546139994678584958300879876729
60,1.35885171857801509898067651883389
61,1.36218581905836763357868294383111
62,1.36546553703613321831649277127342
63,1.36869261963599742910109828073058
64,1.37186873106410625997552234954118
65,1.37499545777622723115729228362578
66,1.37807431324926150473386461517826
67,1.38110674239209922347712967264145
68,1.38409412562805412743146547296609
69,1.38703778267780083220373414356500
70,1.38993897606880988462035840696912
71,1.39279891439467700768588345135409
72,1.39561875534544470439827716041148
73,1.39839960852796138357300639601395
74,1.40114253809350432227562791784102
75,1.40384856518826167835987876539289
76,1.40651867024081920985332099225416
77,1.40915379509949495951469211421788
78,1.41175484503119936470713377469866
79,1.41432269059245143273938398569528
80,1.41685816938224349618276248000248
81,1.41936208768559772119523636751329
82,1.42183522201589609133048834592703
83,1.42427832056337685552033537274408
84,1.42669210455656613720277989307144
85,1.42907726954285412539435818673367
86,1.43143448659390940311621696142736
87,1.43376440344116749778347478824431
88,1.43606764554620636043181991562067
89,1.43834481711043797849381628062456
90,1.44059650202820211010812908773650
91,1.44282326478702667589423086606582
92,1.44502565131853104658603945881350
93,1.44720418980318620986232524959925
94,1.44935939143190287097364842198431
95,1.45149175112719738773657203239703
96,1.45360174822648361834951516359005
97,1.45568984712985441837496469694069
98,1.45775649791454364893814314614922
99,1.45980213691810608600300955427554
100,1.46182718729220628017052571354585
101,1.46383205952877811228953742549260
102,1.46581715196019121544962841615704
103,1.46778285123495252031239671198683
104,1.46972953277036391602716636744328
105,1.47165756118346394522032106855234
106,1.47356729070149068730367312823498
107,1.47545906555302490239190127791092
108,1.47733322034089326856471150434952
109,1.47919008039784295167518356825620
110,1.48102996212593632678075266632007
111,1.48285317332054880907471288361898
112,1.48466001347980331856268504695886
113,1.48645077410021936693441095653214
114,1.48822573895930599732488139166083
115,1.48998518438578735915625089484486
116,1.49172937951810136860377142807023
117,1.49345858655178019222220637338134
118,1.49517306097628026016360628074784
119,1.49687305180179580170107211778667
120,1.49855880177656405353808698414092
121,1.50023054759513202413883010427351
122,1.50188852009803578418205571712840
123,1.50353294446331106030915758391581
124,1.50516404039023622952834447676964
125,1.50678202227567924537377291691603
126,1.50838709938340482962090419306911
127,1.50997947600667768547296773423035
128,1.51155935162447490094351685828728
129,1.51312692105160863792195720577704
130,1.51468237458304182054166877978466
131,1.51622589813266413235225223830562
132,1.51775767336678065459661264683543
133,1.51927787783255369630974268186472
134,1.52078668508162709099703323200667
135,1.52228426478914412630759251961332
136,1.52377078286836658558768492423614
137,1.52524640158108907225569116750444
138,1.52671127964402917594953908207627
139,1.52816557233137193349184867747130
140,1.52960943157363159174978010041938
141,1.53104300605298912197666702144796
142,1.53246644129525586195533594247539
143,1.53387987975860501209383788365514
144,1.53528346091920553198721377610624
145,1.53667732135388879619995734070255
146,1.53806159481997049927276537191755
147,1.53943641233234209699125547981865
148,1.54080190223794711292100258836475
149,1.54215819028774411113886110768592
150,1.54350539970625997601348904730160
151,1.54484365125882941326406019860405
152,1.54617306331661097144163829894867
153,1.54749375191946853350090892895866
154,1.54880583083680217767808788828353
155,1.55010941162640664364088583415925
156,1.55140460369143527024647867898517
157,1.55269151433554045148336198878059
158,1.55397024881626242867043350878275
159,1.5552409103967300917187214494392
160,1.5565036003957401269654239218706
161,1.5577584182362730076711632756971
162,1.5590054614925052882517447802050
163,1.5602448259353730555137670800282
164,1.5614766055767411734589239174531
165,1.5627008927122269218445277062383
166,1.5639177779627285440590196195065
167,1.5651273503147059366017488703639
168,1.5663296971592561690503804216274
169,1.5675249043300288965765342935208
170,1.5687130561400214080951127927078
171,1.5698942354172935044780479017694
172,1.5710685235396400734601763580374
173,1.5722360004682567635378709922499
174,1.5733967447804346003442030397186
175,1.5745508337013175304034465046273
176,1.5756983431347525985874953108976
177,1.5768393476932660197814390255644
178,1.5779739207271942991241988888154
179,1.5791021343529968457397188843004
180,1.5802240594807810263273204073845
181,1.5813397658410623071669621913466
182,1.5824493220107871798944428625815
183,1.5835527954386419202899576195657
184,1.5846502524696714215855873889265
185,1.5857417583692299103844098941392
186,1.5868273773462845137799620909532
187,1.5879071725760954781425881479845
188,1.5889812062222884758562679948482
189,1.5900495394583427310624893387936
190,1.5911122324885106154547522351546
191,1.5921693445681879366409616270860
192,1.5932209340237513012414320118018
193,1.5942670582718808565346803079110
194,1.5953077738383817513971021630444
195,1.5963431363765222488582851702702
196,1.5973732006849021821342533796868
197,1.5983980207248661294215153655408
198,1.5994176496374754693927317343416
199,1.6004321397600521512090513983342
200,1.6014415426423081192097639886393
201,1.6024459090620713686576769267314
202,1.6034452890406220086510812894747
203,1.6044397318576489868840188487409
204,1.6054292860658390911158918598444
205,1.6064139995051081926620665006050
206,1.6073939193164877506019338018362
207,1.6083690919556724473295437785242
208,1.6093395632062431768509703138016
209,1.6103053781925711286555770603245
210,1.6112665813924144627598169020818
211,1.6122232166492149348794748682618
212,1.6131753271841046988520824292078
213,1.6141229556076276641968724473391
214,1.6150661439311903844954844401389
215,1.6160049335782416828175341153059
216,1.6169393653951949686411261661395
217,1.6178694796620972053032545107260
218,1.6187953161030535004225038552109
219,1.6197169138964105922223939843400
220,1.6206343116847117398755072101136
221,1.6215475475844209201504296110454
222,1.6224566591954335277190577627969
223,1.6233616836103671399474690250757
224,1.6242626574236474054604224223660
225,1.6251596167403916130137475671895
226,1.6260525971850934786071786180992
227,1.6269416339101177936756990701412
228,1.6278267616040067445501898232231
229,1.6287080144996050553222214072961
230,1.6295854263820086403408146128615
231,1.6304590305963385555950296506118
232,1.6313288600553506578864362418276
233,1.6321949472468759572790471588415
234,1.6330573242411078088756064329261
235,1.6339160226977291150030955448164
236,1.6347710738728892365583613123335
237,1.6356225086260342336232072858750
238,1.6364703574265921663421180612960
239,1.6373146503605188916241437508445
240,1.6381554171367065090670223653406
241,1.6389926870932587374327731798231
242,1.6398264892036360776051583270588
243,1.6406568520826747927816948820841
244,1.6414838039924813941159124942420
245,1.6423073728482070048995638524400
246,1.6431275862237041218311278293737
247,1.6439444713570671551346958150459
248,1.6447580551560643280616672617627
249,1.6455683642034559042689687646561
250,1.6463754247622091271724725857483
251,1.6471792627806077706805268890636
252,1.6479799038972590992004529218315
253,1.6487773734460033085140177646589
254,1.6495716964607251037716981049533
255,1.6503628976800712940280892674068
256,1.6511510015520744880778346169993
257,1.6519360322386892823293199088649
258,1.6527180136202373847675065505193
259,1.6534969692997684778490802321642
260,1.6542729226073372060269557266743
261,1.6550458966041966009539286838900
262,1.6558159140869126690900775239451
263,1.6565829975913989915932690728016
264,1.6573471693968767866431779909648
265,1.6581084515297589587236815480343
266,1.6588668657674603018932345705803
267,1.6596224336421370695723957640729
268,1.6603751764443559438446529499088
269,1.6611251152266966734667755687114
270,1.6618722708072841040098524939884
271,1.6626166637732588833643641237073
272,1.6633583144841808214501197457631
273,1.6640972430753723465221296784597
274,1.6648334694611992663663705393402
275,1.6655670133382927092413622210978
276,1.6662978941887105221939895994862
277,1.6670261312830456100397482627973
278,1.6677517436834729689310416122573
279,1.6684747502467469169580425741285
280,1.6691951696271406146277140220430
281,1.6699130202793357640239995282131
282,1.6706283204612599828971568576277
283,1.6713410882368750661083973453278
284,1.6720513414789132909448199296391
285,1.6727590978715685735446660666632
286,1.6734643749131385011581691052887
287,1.6741671899186222995145657600741
288,1.6748675600222711370509246124861
289,1.6755655021800954140467114640225
290,1.6762610331723297691707520257510
291,1.6769541696058536443606282279975
292,1.6776449279165702929204354963759
293,1.6783333243717481365911139737045
294,1.6790193750723195084871615319068
295,1.6797030959551388690244401300234
296,1.6803845027952080803781214261520
297,1.6810636112078586711751048394423
298,1.6817404366509004081515763155358
299,1.6824149944267329776103136269479
300,1.6830872996844225272600494240495
301,1.6837573674217434798515594773071
302,1.6844252124871877115197124562333
303,1.6850908495819382679369670873894
304,1.6857542932618111957841789162847
305,1.6864155579391669180416312256756
306,1.6870746578847904162966636395850
307,1.6877316072297374020175730842092
308,1.6883864199671539552188013366676
309,1.6890391099540657197791582094156
310,1.6896896909131369905559168389630
311,1.6903381764344032871939632182045
312,1.6909845799769749277585440410776
313,1.6916289148707129949371532482124
314,1.6922711943178794990802136322545
315,1.6929114313947610577199424093748
316,1.6935496390532674672057679434993
317,1.6941858301225027050575585748535
318,1.6948200173103137142779657209294
319,1.6954522132048141111820403374399
320,1.6960824302758828179988699208002
321,1.6967106808766415391757274576094
322,1.6973369772449071958118584541603
323,1.6979613315046228322575660336759
324,1.6985837556672659720141852036673
325,1.6992042616332361849122962066192
326,1.6998228611932201027908230845635
327,1.7004395660295367044288182355820
328,1.7010543877174600589205336497248
329,1.7016673377265245023486325884788
330,1.7022784274218086794174150489098
331,1.7028876680651998886185306613984
332,1.7034950708166397921491327363242
333,1.7041006467353518691159431529252
334,1.7047044067810487960267642146758
335,1.7053063618151240694801516330025
336,1.7059065226018239290826868017779
337,1.7065048998094024528177121926697
338,1.7071015040112608836955119418234
339,1.7076963456870672521697344958105
340,1.7082894352238623856380196554730
341,1.7088807829171480185822401688874
342,1.7094703989719595004755582980028
343,1.7100582935039227392230691103419
344,1.7106444765402953738207523579648
345,1.7112289580209939955445641321839
346,1.7118117477996048924421339099945
347,1.7123928556443818824631696071437
348,1.7129722912392280469302534151893
349,1.7135500641846649092521379242284
350,1.7141261839987866011975754149394
351,1.7147006601182011043112882248850
352,1.7152735018989582488149489007776
353,1.7158447186174637543491809025497
354,1.7164143194713807270111864542521
355,1.7169823135805189779499219399529
356,1.7175487099877103732859128859570
357,1.7181135176596734543788653442036
358,1.7186767454878665724291741637659
359,1.7192384022893252825370703651762
360,1.7197984968074929351239574376679
361,1.7203570377130362095705679113907
362,1.7209140336046520716576449619233
363,1.7214694930098607504086098977799
364,1.7220234243857897583142190624728
365,1.7225758361199471912930676249007
366,1.7231267365309831860445935747310
367,1.7236761338694424267920656440844
368,1.7242240363185044901319772515648
369,1.7247704519947166605230465250161
370,1.7253153889487149295781710564580
371,1.7258588551659360324566099603350
372,1.7264008585673194778241262621476
373,1.7269414070099995380851587077724
374,1.7274805082879915083554006979271
375,1.7280181701328629257332165820568
376,1.7285544002144012050745168060433
377,1.7290892061412694804705390693193
378,1.7296225954616538198289062368348
379,1.7301545756639036523486600442161
380,1.7306851541771621656429173042141
381,1.7312143383719895479336753469912
382,1.7317421355609761934777755020558
383,1.7322685529993505458739483277838
384,1.7327935978855765429404874602988
385,1.7333172773619442844065653546471
386,1.7338395985151545810576681202095
387,1.7343605683768931346589113417483
388,1.7348801939243982854411906965275
389,1.7353984820810230018219805923467
390,1.7359154397167883014518368324089
391,1.7364310736489284205120397555436
392,1.7369453906424313396241731465907
393,1.7374583974105721398417791580015
394,1.7379701006154377698039818937091
395,1.7384805068684460809064845300519
396,1.7389896227308587813398266897718
397,1.7394974547142879388850285773253
398,1.7400040092811960405827941696063
399,1.7405092928453881750491331588413
400,1.7410133117725006373764230960820
401,1.7415160723804820055207966340563
402,1.7420175809400674333733848634380
403,1.7425178436752489812362673313932
404,1.7430168667637398767735271367317
405,1.7435146563374301718633480569203
406,1.7440112184828399043662547775037
407,1.7445065592415668815101034929669
408,1.7450006846107265880660696836165
409,1.7454936005433870803729565555478
410,1.7459853129490013806684788162882
411,1.7464758276938316317253397024963
412,1.7469651506013685943616376403573
413,1.7474532874527475668649798056313
414,1.7479402439871571501558134185658
415,1.7484260259022451426321827811164
416,1.7489106388545179943088804201567
417,1.7493940884597366687175833954134
418,1.7498763802933060757836462092974
419,1.7503575198906623541713224554925
420,1.7508375127476529849986012186592
421,1.7513163643209136890851551553005
422,1.7517940800282413893149781073754
423,1.7522706652489610742335437967313
424,1.7527461253242901765827909333924
425,1.7532204655576968461130509658680
426,1.7536936912152557234905877981548
427,1.7541658075259986999085991424883
428,1.7546368196822606760674344475466
429,1.7551067328400242328892274302679
430,1.7555755521192560760498085144428
431,1.7560432826042427579588924382254
432,1.7565099293439228266790765972498
433,1.7569754973522107396567539305273
434,1.7574399916083236401774446886203
435,1.7579034170570988201951822512306
436,1.7583657786093097705004031285944
437,1.7588270811419789795707679787013
438,1.7592873294986864631421635002639
439,1.7597465284898747057781212121518
440,1.7602046828931510856235718568990
441,1.7606617974535849421681437551894
442,1.7611178768840028506371509578210
443,1.7615729258652817506770815066318
444,1.7620269490466345486773786377690
445,1.7624799510458975243576393610001
446,1.7629319364498105659392848648657
447,1.7633829098142974030398659653686
448,1.7638328756647390554598849921592
449,1.7642818384962483383357173261486
450,1.7647298027739375760674114072796
451,1.7651767729331870280829081909514
452,1.7656227533799068677540935455913
453,1.7660677484907984575027950138521
454,1.7665117626136113090115588114713
455,1.7669548000673993523771081317499
456,1.7673968651427718111703570678932
457,1.7678379621021433790748134514329
458,1.7682780951799800939636196061277
459,1.7687172685830434233038932513559
460,1.7691554864906322031944552790774
461,1.7695927530548202807243506032113
462,1.7700290724006930726648758732410
463,1.7704644486265816442279679625947
464,1.7708988858042924687581674144364
465,1.7713323879793368370544901965735
466,1.7717649591711570469797401297122
467,1.7721966033733486538335441299521
468,1.7726273245538837970892318393353
469,1.7730571266553280801511923059273
470,1.7734860135950585276314020740376
471,1.7739139892654768872106658957059
472,1.7743410575342225736539898184560
473,1.7747672222443806058394170773059
474,1.7751924872146920407511966672117
475,1.7756168562397558271478627784851
476,1.7760403330902345926663537341877
477,1.7764629215130546973134269277114
478,1.7768846252316052292871080474322
479,1.7773054479459348324653616579099
480,1.7777253933329467600961487244245
481,1.7781444650465907055152215293977
482,1.7785626667180549786297695998204
483,1.7789800019559544081151824125055
484,1.7793964743465167890290356214629
485,1.7798120874537693526663350423105
486,1.7802268448197198433970360910706
487,1.7806407499645390512140536067009
488,1.7810538063867393964238755127544
489,1.7814660175633527945236523750015
490,1.7818773869501056642525004591409
491,1.7822879179815932129598077845931
492,1.7826976140714515873349051417713
493,1.7831064786125278643622357576102
494,1.7835145149770489763948445952173
495,1.7839217265167877626921573924410
496,1.7843281165632293916913702647853
497,1.7847336884277338393782884456454
498,1.7851384454016983688541898527146
499,1.7855423907567175082596841235622
500,1.785945527744742657365162743172
501,1.786347859598237068673465068388
502,1.786749389530333658019182357815
503,1.787150120734987112590056410593
504,1.787550056387128140004377369656
505,1.787949199642812705701136980456
506,1.788347553639371988518551299843
507,1.788745121495560902271958792343
508,1.789141906311704823069851329457
509,1.789537911169842753034077738720
510,1.789933139133872973433316675700
511,1.790327593249694418075485925823
512,1.790721276545347666922110124682
513,1.791114192031154175428243390884
514,1.791506342699854415836208790523
515,1.791897731526745304487443686246
516,1.792288361469815125306531254778
517,1.792678235469877024013471573956
518,1.793067356450702858268072578439
519,1.793455727319154185507593644813
520,1.793843350965313245299133181954
521,1.794230230262610731253131216961
522,1.794616368067954628517024109126
523,1.795001767221856553824369453557
