Eigenstate,Potential Energy
1,0.500000000157254710641626168912142671
2,0.64623093867759676521068856150329247
3,0.73633761272020833331448399680185673
4,0.79966528409469349428978988233103756
5,0.8480465861648715421664847126080913
6,0.8870660137051178362902994632490565
7,0.9197208481629247330434526036080630
8,0.9477838759202457325897490507373062
9,0.9723835959863738960479476641754934
10,0.9942802625118936788355167385741850
11,1.0140094456393227130910283380530651
12,1.0319622406744741287645343376174438
13,1.0484327776841739573834746160887631
14,1.0636477543524949637322908441545404
15,1.0777855517949851674315248706863081
16,1.090989039429140403361902319334530
17,1.103374408435926659934353185250991
18,1.115037422765991721067487461369937
19,1.126057942243651259451872008359355
20,1.136503260200831322456925886676668
21,1.146430609558769913510224011131907
22,1.155889073986760397377064201434796
23,1.164921065838678632439679534707672
24,1.173563483553407038528667016294206
25,1.181848628450762484593287148939881
26,1.189804938539085231684112742171605
27,1.197457581477815734471244333501857
28,1.204828937936535274245188625863802
29,1.211938998796918560199336417687374
30,1.218805693994558856203000561072350
31,1.225445166651687682860975564441479
32,1.231872003073911554638920829693679
33,1.238099426874440403844718318949903
34,1.244139463738736074258364186721820
35,1.250003082003314199393889957795853
36,1.255700313188953900247929958572536
37,1.261240355824485187680281211385510
38,1.266631665266905210520848117655832
39,1.271882031725725840279770424811296
40,1.276998648303634299249221231892357
41,1.281988170548798264639952198679239
42,1.286856768759154279556160692354334
43,1.291610174072531956431308646530573
44,1.296253719208372442832405351451806
45,1.300792374589230050374655095509708
46,1.305230780457109664758988966290006
47,1.309573275506215942503307634950088
48,1.313823922476103935601123720024479
49,1.317986531084558241371344735533975
50,1.32206467862540506104955340071394
51,1.32606172851099458814943672528007
52,1.32998084700074593328203624215829
53,1.33382501832469667354042415921146
54,1.33759705838343798307286068901701
55,1.34129962718234080893150847545570
56,1.34493524013790398613869353094825
57,1.34850627837685622077654670490859
58,1.35201499813384668360139512133695
59,1.35546353934080500939600280303411
60,1.35885393349002698956139923921303
61,1.36218811084347801793623916500963
62,1.36546790705250534471138369811030
63,1.36869506924490830428022187521840
64,1.37187126163000320293810510447616
65,1.37499807066678471236762788330674
66,1.37807700983543827578788246931191
67,1.38110952404819574231742109832582
68,1.38409699373177028428944118053584
69,1.38704073861029398152918821300433
70,1.38994202121475318833657219053467
71,1.39280205014231809518637183728442
72,1.39562198308666465477540422943134
73,1.39840292965833403564355294705929
74,1.40114595401235591804060151354264
75,1.40385207729873084560878272492227
76,1.40652227994991728969386351566176
77,1.40915750381816668468090213171855
78,1.41175865417438389456982261214120
79,1.41432660157914375101417887272347
80,1.41686218363555617740160753387042
81,1.41936620663282307207977554567470
82,1.42183944708856867327670982228034
83,1.42428265319733639447688396782425
84,1.42669654619202082729788962391359
85,1.42908182162444433274022773055708
86,1.43143915057077177629357797729486
87,1.43376918076699949158487099455819
88,1.43607253767933117951746717829080
89,1.43834982551386994769114968652939
90,1.44060162816971247816377422762359
91,1.44282851013920985956665760633749
92,1.44503101735887132204643767343239
93,1.44720967801412485845305289534913
94,1.44936500330090578645566117012798
95,1.45149748814682315224099826376074
96,1.45360761189445205433310099608079
97,1.45569583894911562396615737303263
98,1.45776261939334752414689122281797
99,1.45980838957007235735771374917888
100,1.46183357263639503143481747771895
101,1.46383857908976082900448823217660
102,1.46582380726812235113948205286299
103,1.46778964382564159228729992554691
104,1.46973646418534813881351594037290
105,1.47166463297008140974638155182983
106,1.47357450441295409406886243285879
107,1.47546642274849585694946881732427
108,1.47734072258555714775059877413671
109,1.47919772926298434912130052612908
110,1.48103775918901508635761803747497
111,1.48286112016527665501690592460941
112,1.48466811169622109114173828438208
113,1.48645902528477487265575664932253
114,1.48823414471493248274020005498664
115,1.48999374632198261749924696212490
116,1.49173809925100748857567306843493
117,1.49346746570426395837391942086735
118,1.49518210117801421444453087933591
119,1.49688225468933997586892901370096
120,1.49856816899344838225180123156267
121,1.50024008079193944868554382848659
122,1.50189822093248605692090665280339
123,1.50354281460034526004883988940613
124,1.50517408150210199819090518154452
125,1.50679223604201675643710542250132
126,1.50839748749133349897268360640478
127,1.50999004015088363545269270584414
128,1.51157009350729918849585785693237
129,1.51313784238313625793338588670968
130,1.51469347708119149558358362298469
131,1.51623718352327890020850017915203
132,1.51776914338371926511062939891005
133,1.51928953421778282924489418971282
134,1.52079852958531440676845370831239
135,1.52229629916975216160802299581802
136,1.52378300889274750609846957492497
137,1.52525882102458029480659691677719
138,1.52672389429054987266491067285939
139,1.52817838397352043063881776262566
140,1.52962244201278367618559946992110
141,1.53105621709939726827560538117151
142,1.53247985476814939348456012472744
143,1.53389349748629120949773908118982
144,1.53529728473917170273513873474252
145,1.53669135311290531904883066447127
146,1.53807583637419485769989682436110
147,1.53945086554742391585641586580210
148,1.54081656898913421282608611819498
149,1.54217307245998959516756413395871
150,1.54352049919433036374845098179624
151,1.54485896996741383720163067968861
152,1.54618860316043145114754964052098
153,1.54750951482339134308050888595983
154,1.54882181873595032236701259930929
155,1.55012562646627346155991669029077
156,1.55142104742799917560670944307328
157,1.55270818893538083577298772257252
158,1.55398715625667673660681521897956
159,1.5552580526658520890033201309542
160,1.5565209794926593771413500066480
161,1.5577760361711555756468390111567
162,1.5590233202867156883249693932577
163,1.5602629276215974620050244697926
164,1.5614949521991119123440361241118
165,1.5627194863264482620619832426006
166,1.5639366206362038074576677399160
167,1.5651464441266659457909981239478
168,1.5663490442008890527185535156574
169,1.5675445067046112721482602534957
170,1.5687329159630509619146186955999
171,1.5699143548166229900229246246048
172,1.5710889046556127484164078225030
173,1.5722566454538432868985017986308
174,1.5734176558013714110324178800939
175,1.5745720129362467292646135242829
176,1.5757197927753633559469374887930
177,1.5768610699444375311214505628246
178,1.5779959178071403117986705924826
179,1.5791244084934117800173320427901
180,1.5802466129269877144323648024209
181,1.5813626008521613743735456432036
182,1.5824724408598080921225540934185
183,1.5835762004126957230552431210812
184,1.5846739458701051955613741862691
185,1.5857657425117829692545669507326
186,1.5868516545612463704829788433157
187,1.5879317452084656060443314156968
188,1.5890060766319378918286018350218
189,1.5900747100201774278972150786242
190,1.5911377055926368715010904222368
191,1.5921951226200795310245046344541
192,1.5932470194444186635000804266421
193,1.5942934534980421799946748204477
194,1.5953344813226361001094549055862
195,1.5963701585875246884239165774589
196,1.5974005401075409652622278957991
197,1.5984256798604419675937699040584
198,1.5994456310038829225457845357228
199,1.6004604458919631678935854990749
200,1.6014701760913577602484799187343
201,1.6024748723970457478921534795557
202,1.6034745848476484849549344051399
203,1.6044693627403886422105806806616
204,1.6054592546456815299589267057607
205,1.6064443084213686989251276249052
206,1.6074245712266068385059144919498
207,1.6084000895354178436322691877940
208,1.6093709091499142723108362242248
209,1.6103370752132059373443679886019
210,1.6112986322219991285142283972827
211,1.6122556240388958248816917358334
212,1.6132080939044031250439827784380
213,1.6141560844486572739632637022686
214,1.6150996377028772627941198218053
215,1.6160387951105472086958882951534
216,1.6169735975383414698557184854847
217,1.6179040852867964555491965802036
218,1.6188302981007381044903422840211
219,1.6197522751794683052270451334388
220,1.6206700551867227675443714582240
221,1.6215836762603982480199375447975
222,1.6224931760220663279702773493161
223,1.6233985915862673055081422923785
224,1.6242999595695992619213077721758
225,1.6251973160996048598445640745362
226,1.6260906968234594121145751476984
227,1.6269801369164688651248424015424
228,1.6278656710903795078732375424427
229,1.6287473336015065598565734855384
230,1.6296251582586863250850008534567
231,1.6304991784310537025366823433283
232,1.6313694270556554630474838643362
233,1.6322359366448942792362643155811
234,1.6330987392938196556543982401627
235,1.6339578666872589314047745067317
236,1.6348133501067980551711956216033
237,1.6356652204376157539841038949119
238,1.6365135081751728279571858547812
239,1.6373582434317620078276290034979
240,1.6381994559429205299980292799122
241,1.6390371750737097117358832089072
242,1.6398714298248643838187781670163
243,1.6407022488388162127693861127739
244,1.6415296604055926023125608213343
245,1.6423536924685955485981138546318
246,1.6431743726302629692228056201485
247,1.6439917281576138893307582338209
248,1.6448057859876850668826327522651
249,1.6456165727328540271744499131616
250,1.6464241146860588923322637470528
251,1.6472284378259129068520270781778
252,1.6480295678217164587772348414987
253,1.6488275300383716698550264353822
254,1.6496223495411992127023812574145
255,1.6504140511006612362269652884660
256,1.6512026591969904859321972702135
257,1.6519881980247320117513531187877
258,1.6527706914971939094196583009537
259,1.6535501632508139002284812179095
260,1.6543266366494421369095091594109
261,1.6551001347885405507950540109997
262,1.6558706804993034671296668972353
263,1.6566382963526983406087871937985
264,1.6574030046634320635514245904410
265,1.6581648274938413735351049400060
266,1.6589237866577095298861889565332
267,1.6596799037240124739748077952546
268,1.6604332000205945087885893815450
269,1.6611836966377777695206396074666
270,1.6619314144319012111927712828703
271,1.6626763740287983992130544993477
272,1.6634185958272080844383496007825
273,1.6641581000021250079319889703187
274,1.6648949065080881465750756601821
275,1.6656290350824102773268133236296
276,1.6663605052483471407736102669492
277,1.6670893363182136903445264605358
278,1.6678155473964391842793962269509
279,1.6685391573825726260376660476200
280,1.6692601849742306493213105296023
281,1.6699786486699957399230682944882
282,1.6706945667722622941445069631879
283,1.6714079573900337297942421083108
284,1.6721188384416678099608015575397
285,1.6728272276575769905732219118381
286,1.6735331425828798203364283249704
287,1.6742366005800084562891216987024
288,1.6749376188312687008049630733514
289,1.6756362143413572122610796235455
290,1.6763324039398366261678579403328
291,1.6770262042835664320734952483034
292,1.6777176318590924956500666318643
293,1.6784067029849991363425834595957
294,1.6790934338142188022350406712557
295,1.6797778403363014341331165252414
296,1.6804599383796511094232656692122
297,1.6811397436137199025500425903211
298,1.6818172715511682841284659140238
299,1.6824925375499888669534949128760
300,1.6831655568155952550583638430883
301,1.6838363444028764129614400851270
302,1.6845049152182186538865823890658
303,1.6851712840214924261021491726698
304,1.6858354654280074810938573155598
305,1.6864974739104378584384399924975
306,1.6871573238007159571370678743702
307,1.6878150292918928820795184042737
308,1.6884706044399725509882890804042
309,1.6891240631657156582147966934936
310,1.6897754192564138378392824267996
311,1.6904246863676376284908140259997
312,1.6910718780249557607420068269655
313,1.6917170076256271677710080773443
314,1.6923600884402675317259231982439
315,1.6930011336144896938456623647556
316,1.6936401561705193126075466133249
317,1.6942771690087833174040991689452
318,1.6949121849094765181346200823255
319,1.6955452165341035216838610537112
320,1.6961762764269959662242648258295
321,1.6968053770168090022461247753083
322,1.6974325306179931450010795779970
323,1.6980577494322450229476215814639
324,1.6986810455499360102188438083012
325,1.6993024309515205162680809344266
326,1.6999219175089221814546663220034
327,1.7005395169869008111790338994633
328,1.7011552410443972499884153222512
329,1.7017691012358611830957566905117
330,1.7023811090125583099449800628407
331,1.7029912757238583417605799698748
332,1.7035996126185048980646745946896
333,1.7042061308458676948932605555296
334,1.7048108414571752233291568450455
335,1.7054137554067322483398199904150
336,1.7060148835531182014855140936665
337,1.7066142366603693557498180062091
338,1.7072118253991458578306791867261
339,1.7078076603478796994225297757349
340,1.7084017519939097363677522801044
341,1.7089941107345994873668332444640
342,1.7095847468784402280629263545328
343,1.7101736706461390375623499653009
344,1.7107608921716918109813742080740
345,1.7113464215034430778732436014816
346,1.7119302686051301225135480974831
347,1.7125124433569149932671118462121
348,1.7130929555564012353432336740541
349,1.7136718149196389151690100775636
350,1.7142490310821155027991008452696
351,1.7148246135997347248390590535329
352,1.7153985719497830959292990605235
353,1.7159709155318834397094887720902
354,1.7165416536689368411739052258132
355,1.7171107956080534240266950250144
356,1.7176783505214701921380080304494
357,1.7182443275074592044182746600809
358,1.7188087355912253584284905253153
359,1.7193715837257895602483527013575
360,1.7199328807928662520109833679749
361,1.7204926356037270766059238169891
362,1.7210508569000571969877523608171
363,1.7216075533547989027761911860365
364,1.7221627335729875665057985211786
365,1.7227164060925782255989957681496
366,1.7232685793852617088280072816954
367,1.7238192618572732418263570495435
368,1.7243684618501903644441579459746
369,1.7249161876417248381105322856571
370,1.7254624474465043036313765359399
371,1.7260072494168465917042406464454
372,1.7265506016435256933386950108475
373,1.7270925121565294094631255636806
374,1.7276329889258130426829630916198
375,1.7281720398620398792227376851039
376,1.7287096728173199758271682408629
377,1.7292458955859391015420429652024
378,1.7297807159050810647589071958147
379,1.7303141414555453306413116411186
380,1.7308461798624567534701502026560
381,1.7313768386959703696727982918777
382,1.7319061254719684426809489491415
383,1.7324340476527545100621582280430
384,1.7329606126477394752692713903395
385,1.7334858278141234469710189858617
386,1.7340097004575740694410491655540
387,1.7345322378328971814953392369174
388,1.7350534471447038323474577701224
389,1.7355733355480744242310834900930
390,1.7360919101492172698283994561783
391,1.7366091780061219842838753573397
392,1.7371251461292114271145618478739
393,1.7376398214819897787306150281709
394,1.7381532109816854483665988705623
395,1.7386653214998917906715885312242
396,1.7391761598632054071091623798403
397,1.7396857328538617924865315319548
398,1.7401940472103684705115402331944
399,1.7407011096281343255521603035173
400,1.7412069267600995778197438517361
401,1.7417115052173626043138729534273
402,1.7422148515698045106098196034466
403,1.7427169723467144408473456209782
404,1.7432178740374136927205091886819
405,1.7437175630918762840382215298349
406,1.7442160459213522687984513406776
407,1.7447133288989911165820327693740
408,1.7452094183604628640875266093317
409,1.7457043206045801145314848702891
410,1.7461980418939236234517629372070
411,1.7466905884554659649093839127335
412,1.7471819664811971050704587684408
413,1.7476721821287532175280932641232
414,1.7481612415220454310402371164805
415,1.7486491507518930725073247135224
416,1.7491359158766581264285647633545
417,1.7496215429228840642499325080522
418,1.7501060378859365258533144038235
419,1.7505894067306504654798569506383
420,1.7510716553919790933771219991346
421,1.7515527897756489311075570579024
422,1.7520328157588206451694173554353
423,1.7525117391907538962943927506649
424,1.7529895658934802385972322561892
425,1.7534663016624808885699492960344
426,1.7539419522673734327966518408644
427,1.7544165234526054435107533573774
428,1.7548900209381555239899124077671
429,1.7553624504202462295495189409676
430,1.7558338175720622861400237365804
431,1.7563041280444821980865652630281
432,1.7567733874668210119911048424336
433,1.7572416014475802234841667614660
434,1.7577087755752166066665580822393
435,1.7581749154189185068470555019598
436,1.7586400265293982515739213462015
437,1.7591041144396996346053244597735
438,1.7595671846660202897540385085120
439,1.7600292427085505148502473736096
440,1.7604902940523305427204621360572
441,1.7609503441681243942666936952775
442,1.7614093985133149051167541426641
443,1.7618674625328206571857543530427
444,1.7623245416600305774177292853590
445,1.7627806413177667402500451896572
446,1.7632357669192676709459442599774
447,1.7636899238692006629148914935296
448,1.7641431175646977468558029335350
449,1.7645953533964246524342628004670
450,1.7650466367496765008641599952847
451,1.7654969730055094087802608807386
452,1.7659463675419026194565132636183
453,1.7663948257349587828280637496248
454,1.7668423529601407624532676790404
455,1.7672889545935507006561651333390
456,1.7677346360132488723160047961019
457,1.7681794026006193913144838263292
458,1.7686232597417816779238429087157
459,1.7690662128290528674941901432807
460,1.7695082672624636340815182300037
461,1.7699494284513282865327474181080
462,1.7703897018158755469083400002956
463,1.7708290927889420144536180715325
464,1.7712676068177300927514115906218
465,1.7717052493656381985796574561764
466,1.7721420259141644833044034353716
467,1.7725779419648877162753350419479
468,1.7730130030415350038090431251110
469,1.7734472146921337892412334067880
470,1.7738805824912609618356624651953
471,1.7743131120423890052313137980789
472,1.7747448089803395346983860929116
473,1.7751756789738460444631320664029
474,1.7756057277282402910541204695411
475,1.7760349609882586451553180817860
476,1.7764633845409888625136234429031
477,1.7768910042189561133749247301146
478,1.7773178259033620696641190457474
479,1.7777438555274857301492092040394
480,1.7781690990802568926456379686532
481,1.7785935626100121233777069082642
482,1.7790172522284489432747487092871
483,1.7794401741147866873476914975112
484,1.7798623345201509388851984527538
485,1.7802837397721981916178258030664
486,1.7807043962799916924934113685947
487,1.7811243105391529804538487043185
488,1.7815434891373028009278281659932
489,1.7819619387598152540432836836988
490,1.7823796661959053597916490257457
491,1.7827966783450763432725207797290
492,1.7832129822239514213306154299700
493,1.7836285849735184770526774047549
494,1.7840434938668195612887459286290
495,1.7844577163171169312857123100730
496,1.7848712598865753263692632976628
497,1.7852841322954958546621500314355
498,1.7856963414321486862046484293194
499,1.7861078953632492282146800309869
500,1.786518802345131428523878550713
501,1.786929070835670263573294457327
502,1.787338709507022482889753857816
503,1.787747727259244575479792875849
504,1.788156133234869823524760460440
505,1.788563936834518560749174458765
506,1.788971147733636698557609322320
507,1.789377775900458682724852221865
508,1.789783831615302854203647357364
509,1.790189325491316970397001513710
510,1.790594268496811985867883372137
511,1.790998671979323396791351579157
512,1.791402547691565863355333511961
513,1.791805907819459230594681778746
514,1.792208765012426044407460291102
515,1.792611132416182814309947186316
516,1.793013023708270477985344615649
517,1.793414453136601092127550982591
518,1.793815435561331027118286496025
519,1.794215986500402901290153791043
520,1.794616122179146628707615803588
521,1.795015859584371857569894963181
522,1.795415216523446365127806400199
523,1.795814211688909897282416762663
