Eigenstate,Potential Energy
1,0.500000000024169101870089649225563206
2,0.64623093780887784204423162968132356
3,0.73633761016839185074120187309886161
4,0.79966527877948053078254891551155707
5,0.8480465769576791517157276196427402
6,0.8870659994575127197607847184419933
7,0.9197208277170851668110640875301951
8,0.9477838481133111748529735163312881
9,0.9723835596524551963594937913475663
10,0.9942802164830819528809219550343795
11,1.0140093887462268176598587580480659
12,1.0319621717465179014001891227303779
13,1.0484326955497626537352114158502377
14,1.0636476578391064004680110580640020
15,1.0777854397292154236771527856374032
16,1.090988910636720960018601134521614
17,1.103374261741722941416281343085937
18,1.115037256993989146520195341052090
19,1.126057756216932671074705831264586
20,1.136503052741548312031287854693341
21,1.146430379488109733030929081546731
22,1.155888820124909607068830180764896
23,1.164920787004784291239848716234247
24,1.173563178565536009321643590999832
25,1.181848296125859267653555712762153
26,1.189804577692928629404373567002846
27,1.197457190924974572438819758839260
28,1.204828516490323347734953545869250
29,1.211938545269348934385947710440505
30,1.218805207196297618325821991868459
31,1.225444645392007222124538145711959
32,1.231871446160643428679978554220735
33,1.238098833113927837661882369974004
34,1.244138831935786127533044827373433
35,1.250002410961149630379860336171538
36,1.255699601709164748326442988350521
37,1.261239602706980091868663800700272
38,1.266630869309862477389915945481508
39,1.271881191725544271658107808491128
40,1.276997763054883787604350472982958
41,1.281987238844170162001109921083646
42,1.286855789389411544184058767658497
43,1.291609145826459080072154995984569
44,1.296252640872725160258772042546009
45,1.300791244948684831968678088359662
46,1.305229598294212992098358682918905
47,1.309572039601333366239484620621215
48,1.313822631607368914348938964458550
49,1.317985184027820759842265198605802
50,1.32206327415418002524257331655316
51,1.32606026539640999505159055092690
52,1.32997932401149081221616279142840
53,1.33382343422696879602262021604175
54,1.33759541194089133779961452467216
55,1.34129791715603283830187652386993
56,1.34493346528624258052533694241270
57,1.34850443745554646658771930824325
58,1.35201308989583736102011846224972
59,1.35546156253623483554187521457410
60,1.35885188686617060269054995008907
61,1.36218599314469169817567680670343
62,1.36546571702017246671280724373718
63,1.36869280561738451707487953436649
64,1.37186892314256133217683203924499
65,1.37499565605155938003738889848701
66,1.37807451782137023240856176284187
67,1.38110695336097590653823602856313
68,1.38409434309378348472318565292224
69,1.38703800674056239558353763689633
70,1.38993920682887947272607316935183
71,1.39279915195242820273298702386328
72,1.39561899980135033203314490441155
73,1.39839985998259499580968989270691
74,1.40114279664754168354526205284256
75,1.40384883094248225470326860502165
76,1.40651894329610766128855393556621
77,1.40915407555684263561282400336448
78,1.41175513299170580341010330660025
79,1.41432298615732586245533757387068
80,1.41685847265280634119487986402381
81,1.41936239876328211042104743885555
82,1.42183554100224937046947552560231
83,1.42427864756006210262835524961251
84,1.42669243966536368173255684964416
85,1.42907761286566307074196321092475
86,1.43143483823274915271404690205545
87,1.43376476349817928478087172084638
88,1.43606801412365478100499221005226
89,1.43834519431071252882725807516382
90,1.44059688795381872709023073601603
91,1.44282365954062928157026754816863
92,1.44502605500289309641215687733343
93,1.44720460252121224480459842611165
94,1.44935981328663007349669458334271
95,1.45149218222179714172662668462260
96,1.45360218866426307301723658577667
97,1.45569029701425805618366550654798
98,1.45775695734915485760344712450121
99,1.45980260600664873461037607284706
100,1.46182766613854629945734883369175
101,1.46383254823692507913894388767949
102,1.46581765063429994164339430178112
103,1.46778335997932464559071651295933
104,1.46973005168944950550341043654192
105,1.47165809038186309119914785428320
106,1.47356783028395511555123805938549
107,1.47545961562445958290719637640267
108,1.47733378100635803090137250626043
109,1.47919065176255410486343820634034
110,1.48103054429526828389945491286756
111,1.48285376640003571652373679658607
112,1.48466061757514069008624637171205
113,1.48645138931726572244617376062109
114,1.48822636540408450658603212551487
115,1.48998582216448749035800655073102
116,1.49173002873708054190608943674754
117,1.49345924731756543830076341084369
118,1.49517373339556988381743433981566
119,1.49687373598146105057349522419477
120,1.49855949782365079200395915746697
121,1.50023125561686241241133093584446
122,1.50188924020180996269264066021715
123,1.50353367675670883941453383862004
124,1.50516478498101878459866568833569
125,1.50678277927179081731655605485241
126,1.50838786889297443089547122917387
127,1.50998025813802081165053077040127
128,1.51156014648609524786834420145867
129,1.51312772875219982452935856217544
130,1.51468319523148911738886159284907
131,1.51622673183804619591848848469559
132,1.51775852023837126740930686859473
133,1.51927873797982351295355233949127
134,1.52078755861424539006331095887637
135,1.52228515181698056834188654833698
136,1.52377168350149297709323823071667
137,1.52524731592978113581136804609804
138,1.52671220781876832650080719668298
139,1.52816651444284706087387380550296
140,1.52961038773274084950197364881857
141,1.53104397637084172250839517235908
142,1.53246742588317387812288216963845
143,1.53388087872812518524895422141417
144,1.53528447438208108655815197322024
145,1.53667834942209126086596715214253
146,1.53806263760569153479362571569443
147,1.53943746994799533075369215712673
148,1.54080297479616998026414459079560
149,1.54215927790139970352136310404127
150,1.54350650248843889608527911192173
151,1.54484476932285163690605416783620
152,1.54617419677602771683711822628361
153,1.54749490088806413730273259723499
154,1.54880699542859597833612632168295
155,1.55011059195565487195463712094310
156,1.55140579987263294720817214124788
157,1.55269272648342329347716658658998
158,1.55397147704580876009389915301936
159,1.5552421548231627650929455950266
160,1.5565048611345284506008217155906
161,1.5577596954031346809561986650965
162,1.5590067552034083446323714859967
163,1.5602461363065378132317049043972
164,1.5614779327246421941173763083858
165,1.5627022367535949768704128008719
166,1.5639191390145525891311294215143
167,1.5651287284942350941147281391187
168,1.5663310925840017186849472148491
169,1.5675263171177662740466434259572
170,1.5687144864087922121433981568111
171,1.5698956832854075121912157076515
172,1.5710699891256772639765055479289
173,1.5722374838910693502195021470015
174,1.5733982461591490714872737815756
175,1.5745523531553366985597054943959
176,1.5756998807837576585714583603820
177,1.5768409036572186154376220845562
178,1.5779754951263385989294675636362
179,1.5791037273078616273163257321881
180,1.5802256711121817699426315840456
181,1.5813413962701032982964696256212
182,1.5824509713588636209250385977335
183,1.5835544638274420514411229182849
184,1.5846519400211786511265269498990
185,1.5857434652057249542257945670447
186,1.5868291035903475445193713832938
187,1.5879089183506082836433713383620
188,1.5889829716504366274400213515373
189,1.5900513246636177613959475293909
190,1.5911140375947122062123733940308
191,1.5921711696994261160251100738554
192,1.5932227793044486514425846108732
193,1.5942689238267747312146520500678
194,1.5953096597925265032789142291463
195,1.5963450428552914675067575748196
196,1.5973751278139909420121142308536
197,1.5983999686302932483063734129341
198,1.5994196184455857772407689237065
199,1.6004341295975187695520489008033
200,1.6014435536361347511725699602045
201,1.6024479413395945996837879404986
202,1.6034473427295136180248610345156
203,1.6044418070859182701384333820386
204,1.6054313829618351934154295092967
205,1.6064161181975224532510835284111
206,1.6073960599343560584093946128486
207,1.6083712546283776078216517481594
208,1.6093417480635172902239392988630
209,1.6103075853644979794614228733485
210,1.6112688110094319210587378363897
211,1.6122254688421173690130330771805
212,1.6131776020840453999320400728352
213,1.6141252533461212824054175243215
214,1.6150684646401153772930106325963
215,1.6160072773898427751550632540497
216,1.6169417324420856252750468674843
217,1.6178718700772621153108115743884
218,1.6187977300198510740171679977656
219,1.6197193514485754699690540156472
220,1.6206367730063573144060600600174
221,1.6215500328100418704811275407820
222,1.6224591684599083662717999598359
223,1.6233642170489607723778473524200
224,1.6242652151720137033961698327263
225,1.6251621989345759998080974910583
226,1.6260552039615355282122743106009
227,1.6269442654056538427420202147905
228,1.6278294179558725178588839003030
229,1.6287106958454383046578808021839
230,1.6295881328598517969131361581006
231,1.6304617623446413961185627629100
232,1.6313316172129729844285536042081
233,1.6321977299530902909869691901876
234,1.6330601326356020976943278238160
235,1.6339188569206094554967278185887
236,1.6347739340646826099483878872091
237,1.6356253949276912561580758064722
238,1.6364732699794898541132504478442
239,1.6373175893064634399445794940672
240,1.6381583826179360865297176290072
241,1.6389956792524462947664200569547
242,1.6398295081838921714463209668105
243,1.6406598980275504244831555910734
244,1.6414868770459708637117918194432
245,1.6423104731547507803488755138368
246,1.6431307139281917236624148989631
247,1.6439476266048400566152299802783
248,1.6447612380929188710157553417798
249,1.6455715749756462306708511154888
250,1.6463786635164501266403278636760
251,1.6471825296640780439990644874363
252,1.6479831990576039380005743013114
253,1.6487806970313376912390667912365
254,1.6495750486196367080608964281640
255,1.6503662785616235256486776157989
256,1.6511544113058095265386147975283
257,1.6519394710146311433092839868393
258,1.6527214815688949994943160730577
259,1.6535004665721387895632157521702
260,1.6542764493549082836686016956109
261,1.6550494529789507702104965692628
262,1.6558195002413296609436699793288
263,1.6565866136784591085082541491590
264,1.6573508155700640865353988744030
265,1.6581121279430644568538319617094
266,1.6588705725753851908281700051031
267,1.6596261709996959573592248244091
268,1.6603789445070801105438318214316
269,1.6611289141506373461913037950309
270,1.6618761007490157506192049974932
271,1.6626205248898825249628326044090
272,1.6633622069333273638406045896097
273,1.6641011670152059307673374621112
274,1.6648374250504206386111360010994
275,1.6655710007361426099505498794225
276,1.6663019135549730949621913281142
277,1.6670301827780518301298874608247
278,1.6677558274681040917006472976374
279,1.6684788664824379463329489062592
280,1.6691993184758837917844999712093
281,1.6699172019036840764438793878265
282,1.6706325350243306939550784359929
283,1.6713453359023532653628647716206
284,1.6720556224110554652948978192220
285,1.6727634122352061994226859774734
286,1.6734687228736816579273115218489
287,1.6741715716420633042424721292961
288,1.6748719756751882008317528071713
289,1.6755699519296563200454067656506
290,1.6762655171862955725649980332366
291,1.6769586880525823943572875778687
292,1.6776494809650207770247825275160
293,1.6783379121914836473086644246141
294,1.6790239978335116326398070684848
295,1.6797077538285712998634562838587
296,1.6803891959522804526787821376714
297,1.6810683398205904194990007789869
298,1.6817452008919346484642791303360
299,1.6824197944693404124437514738130
300,1.6830921357025053746104664215875
301,1.6837622395898394260057583884875
302,1.6844301209804738880039449233335
303,1.6850957945762352527840543712464
304,1.6857592749335870393169192032974
305,1.6864205764655411933716469237248
306,1.6870797134435382947397983992172
307,1.6877366999992937536288068229074
308,1.6883915501266174746512603969354
309,1.6890442776832030776735915439996
310,1.6896948963923870106689294058849
311,1.6903434198448811494749630500675
312,1.6909898615004763975874560881738
313,1.6916342346897186787366354307441
314,1.6922765526155591265178552838013
315,1.6929168283549777907182502726726
316,1.6935550748605822359792353242251
317,1.6941913049621785713983825690964
318,1.6948255313683202623135550907238
319,1.6954577666678318658300888117856
320,1.6960880233313076913470194796477
321,1.6967163137125893050153602754028
322,1.6973426500502179925575527501211
323,1.6979670444688656944854821646220
324,1.6985895089807433908552848609180
325,1.6992100554869886975380071305784
326,1.6998286957790309112309405236441
327,1.7004454415399363239637245133166
328,1.7010603043457309962920501289389
329,1.7016732956667059640355822244810
330,1.7022844268687013102249065558842
331,1.7028937092143705408316269251516
332,1.7035011538644263255039577794640
333,1.7041067718788679818440099727474
334,1.7047105742181888872299914769181
335,1.7053125717445681330967880136628
336,1.7059127752230424797065858889144
337,1.7065111953226614836359656815577
338,1.7071078426176268568117309783141
339,1.7077027275884121215825142429874
340,1.7082958606228686531470457085817
341,1.7088872520173138228967010730592
342,1.7094769119776037398022157653590
343,1.7100648506201902276135071476025
344,1.7106510779731620315605457317591
345,1.7112356039772720738691629528422
346,1.7118184384869482328671752989953
347,1.7123995912712912110194622673379
348,1.7129790720150563035965566797237
349,1.7135568903196226128812560215474
350,1.7141330557039472502344924291194
351,1.7147075776055066136044125126185
352,1.7152804653812244228245460562077
353,1.7158517283083857970600796046167
354,1.7164213755855387888593601696738
355,1.7169894163333837400757027644560
356,1.7175558595956486694294990981396
357,1.7181207143399539307367698603745
358,1.7186839894586653857929278845206
359,1.7192456937697318370391954504259
360,1.7198058360175156579186921788553
361,1.7203644248736083657801657422509
362,1.7209214689376376189182395680121
363,1.7214769767380602333526286176948
364,1.7220309567329462433297899995485
365,1.7225834173107522419038867901735
366,1.7231343667910828792571518715639
367,1.7236838134254434107601086662212
368,1.7242317653979800834919474556784
369,1.7247782308262129937573251703287
370,1.7253232177617571287662735001874
371,1.7258667341910344457780891733678
372,1.7264087880359759451805018064087
373,1.7269493871547137042116035364037
374,1.7274885393422671797965483192162
375,1.7280262523312144720608805546596
376,1.7285625337923600047291429078050
377,1.7290973913353904116115849940433
378,1.7296308325095217965832390732758
379,1.7301628648041402068497808142054
380,1.7306934956494320762575413462917
381,1.7312227324170075140763584510673
382,1.7317505824205135574178622928202
383,1.7322770529162420619432235296364
384,1.7328021511037271945539396322992
385,1.7333258841263361493125569454023
386,1.7338482590718537452381322915322
387,1.7343692829730566553040631125164
388,1.7348889628082812034275702352909
389,1.7354073055019854041268705247500
390,1.7359243179253024339413200011363
391,1.7364400068965858515442870381573
392,1.7369543791819501749139179751651
393,1.7374674414958042890365723358261
394,1.7379792005013762652267319616950
395,1.7384896628112324489240266294366
396,1.7389988349877904668212439458383
397,1.7395067235438257832184889587140
398,1.7400133349429718137240690588396
399,1.7405186756002121620797949000933
400,1.7410227518823692800544802708714
401,1.7415255701085855993114419053221
402,1.7420271365507978804525530303037
403,1.7425274574342075999640176108907
404,1.7430265389377452681402524279671
405,1.7435243871945261434159245750375
406,1.7440210082923034521272345287928
407,1.7445164082739162304073985564871
408,1.7450105931377292913965319602283
409,1.7455035688380681788282793028992
410,1.7459953412856516214568841026119
411,1.7464859163480157483287568160897
412,1.7469752998499336474725599347614
413,1.7474634975738313470537861702816
414,1.7479505152601966428240456215314
415,1.7484363586079850558136693098245
416,1.7489210332750193498858072616531
417,1.7494045448783854576247708419272
418,1.7498868989948219777801995377734
419,1.7503681011611075227645128040394
420,1.7508481568744408981111940087642
421,1.7513270715928180660630640908201
422,1.7518048507354051748790161816074
423,1.7522814996829054899842960099830
424,1.7527570237779238406751465915666
425,1.7532314283253249617220605208463
426,1.7537047185925893366979776243505
427,1.7541768998101640276447815869858
428,1.7546479771718085047514204212667
429,1.7551179558349393884146895572286
430,1.7555868409209669657730641937659
431,1.7560546375156309853509055334892
432,1.7565213506693328793108921684802
433,1.7569869853974597511945373673418
434,1.7574515466807112270707322893598
435,1.7579150394654169937487294584129
436,1.7583774686638529250278341547857
437,1.7588388391545539573350068710291
438,1.7592991557826226967957002173293
439,1.7597584233600344390233657674946
440,1.7602166466659396728211183904123
441,1.7606738304469612276288290050582
442,1.7611299794174896283413935863844
443,1.7615850982599763051731173839168
444,1.7620391916252192779177186406639
445,1.7624922641326506452417016955867
446,1.7629443203706169033376869547581
447,1.7633953648966592630849004182323
448,1.7638454022377871838947073842743
449,1.7642944368907529647234249787059
450,1.7647424733223195446698540638512
451,1.7651895159695290162277639716307
452,1.7656355692399646925176733344559
453,1.7660806375120124715448825030453
454,1.7665247251351178864076891286055
455,1.7669678364300424653031098171015
456,1.7674099756891146983029077192467
457,1.7678511471764803065815008437398
458,1.7682913551283482099651718202808
459,1.7687306037532347067015592148264
460,1.7691688972322055077642195146152
461,1.7696062397191134753908215349266
462,1.7700426353408352788765620382029
463,1.7704780881975055713665332700525
464,1.7709126023627468485244055742523
465,1.7713461818838989577837862530342
466,1.7717788307822453888508286132036
467,1.7722105530532356259445804593102
468,1.7726413526667085773864854813769
469,1.7730712335671095592059704809640
470,1.7735001996737083572726085711824
471,1.7739282548808126350309692038037
472,1.7743554030579809844193085050204
473,1.7747816480502309708429419241458
474,1.7752069936782496761645155771872
475,1.7756314437385956624338160147446
476,1.7760550020039048701303561557560
477,1.7764776722230907838814602175069
478,1.7768994581215435416114690279321
479,1.7773203634013268764714459440482
480,1.7777403917413732860961349583702
481,1.7781595467976759800271053194263
482,1.7785778322034811740533866450816
483,1.7789952515694761114297930809563
484,1.7794118084839756306899282961402
485,1.7798275065131087568920881782154
486,1.7802423492009999010519750633902
487,1.7806563400699515165044015584579
488,1.7810694826206228086402373836820
489,1.7814817803322077260762418363452
490,1.7818932366626100962600930043912
491,1.7823038550486180396677789930350
492,1.7827136389060762506524788703211
493,1.7831225916300561198238897665619
494,1.7835307165950247918656532048066
495,1.7839380171550113511525927563570
496,1.7843444966437733794523173679765
497,1.7847501583749595710924919933702
498,1.7851550056422723507066413468006
499,1.7855590417196279907352145224760
500,1.785962269861316359007948355553
501,1.786364693302156042269703342573
502,1.786766315257652300650899280406
503,1.787167138924149321025091023090
504,1.787567167478984612904177808028
505,1.787966404080638394146593415341
506,1.788364851868883696370746842852
507,1.788762513964935037902586697632
508,1.789159393471595304015159842522
509,1.789555493473399065143752486896
510,1.789950817036758386104193167465
511,1.790345367210104357179589511260
512,1.790739147024028247056943158152
513,1.791132159491420893137350507111
514,1.791524407607611005466982997508
515,1.791915894350502758373626137005
516,1.792306622680710879982647810406
517,1.792696595541694314189222076588
518,1.793085815859890240311408405793
519,1.793474286544845232205686434077
520,1.793862010489346413688920378146
521,1.794248990569549405333496861575
522,1.794635229645107338677571738724
523,1.795020730559297374847037171594
