Eigenstate,Potential Energy
1,0.500000000014504313536650179045057714
2,0.64623093774579119932211984837627780
3,0.73633760998308019653440261196963744
4,0.79966527839349828032093109137464504
5,0.8480465762890805975386372734931449
6,0.8870659984229190795053282056744144
7,0.9197208262324465103415443117363820
8,0.9477838460942244719004689161358042
9,0.9723835570143124776992956561596922
10,0.9942802131411457562516859749181164
11,1.0140093846156714028198860012945141
12,1.0319621667424530218083813394818983
13,1.0484326895872478321426170227571606
14,1.0636476508331597396423703292505106
15,1.0777854315948191204217495345446120
16,1.090988901288824748505006453610218
17,1.103374251095246189700678169490768
18,1.115037244963822049986151842495229
19,1.126057742717936823920613435429003
20,1.136503037688556840139139595909792
21,1.146430362795927110903042874031263
22,1.155888801708311242842807796340833
23,1.164920766778515938507672422694124
24,1.173563156444313047574995486884558
25,1.181848272024365881644978078536943
26,1.189804551525816909699651614941156
27,1.197457162606863553772153861192012
28,1.204828485935797997713620407865787
29,1.211938512392959102132221574978625
30,1.218805171912556950461739888931297
31,1.225444607615392051876193032774832
32,1.231871405805591642648452161416698
33,1.238098790094837723870076349959948
34,1.244138786167015207635356628715292
35,1.250002362357013478360287083512951
36,1.255699550183935797570717796703733
37,1.261239548174886432148407287268450
38,1.266630811685086643020114804078491
39,1.271881130922222021867462117048547
40,1.276997698987102879979068513794126
41,1.281987171425969119717452459454776
42,1.286855718534778417626247815211817
43,1.291609071449330203334791046345216
44,1.296252562886983902952423365457786
45,1.300791163268160346680503271149980
46,1.305229512832678957803914142859051
47,1.309571950272506727915213188012937
48,1.313822538324908618995553094548583
49,1.317985086705326489096068114685936
50,1.32206317270519092472361390913670
51,1.32606015973440340057356140216811
52,1.32997921404988097296247147432660
53,1.33382331987910559477547941237809
54,1.33759529312005900829386256747865
55,1.34129779377544867976217330473793
56,1.34493333725905566943404998141191
57,1.34850430469483636572099369454822
58,1.35201295231461282578100336078814
59,1.35546142004743251761192340183718
60,1.35885173938265375101469922318129
61,1.36218584057924885728945393594803
62,1.36546555928551617241577347055836
63,1.36869264262614998944974827908461
64,1.37186875480730516594969409255664
65,1.37499548228475823227089385938328
66,1.37807433853541950751677528402407
67,1.38110676846818843860904165263011
68,1.38409415250638821713157912878068
69,1.38703781037070305787684726094857
70,1.38993900458861325476016212068021
71,1.39279894375372442603654250749424
72,1.39561878555608911837558596150718
73,1.39839963960256593294662857948803
74,1.40114257004444248811410675406766
75,1.40384859802791743224027756542787
76,1.40651870398158716333750211084051
77,1.40915382975378051389438610865813
78,1.41175488061141886102007700970929
79,1.41432272711103230205891911480085
80,1.41685820685162441018340117399879
81,1.41936212611822874299678680666080
82,1.42183526142423882662343342923085
83,1.42427836095990460397524419910733
84,1.42669214595376404416659484591182
85,1.42907731195321933387648397837730
86,1.43143453002995120606739837169978
87,1.43376444791540749067052101756661
88,1.43606769107117859411128231545885
89,1.43834486369868911238778240341287
90,1.44059654969229156568535144143853
91,1.44282331353952679045985264408276
92,1.44502570117202722738322526584146
93,1.44720424077027708848915580466262
94,1.44935944352520045811866115093679
95,1.45149180435932722823638522845392
96,1.45360180261008494657200466389673
97,1.45568990267758031393149591787232
98,1.45775655463906119272839099291710
99,1.45980219483209651659594595410131
100,1.46182724640836515052516302470670
101,1.46383211985981544681906891648789
102,1.46581721351883166743262178382095
103,1.46778291403393552965472582562680
104,1.46972959682244386737840076374706
105,1.47165762650141032644831076148160
106,1.47356735729808824833110218565735
107,1.47545913344107381439859786188824
108,1.47733328953320928355953115394301
109,1.47919015090725756244131347524945
110,1.48103003396529692719829390780244
111,1.48285324650271885482443986973927
112,1.48466008801766248821488764301154
113,1.48645085000666372342674976063711
114,1.48822581624724814983322390482352
115,1.48998526306815662536245905896135
116,1.49172945960784393736444823529434
117,1.49345866806185928664241884065232
118,1.49517314391967630107963697191914
119,1.49687313619150657157625684437971
120,1.49855888762560486077583213623416
121,1.50023063491653586781691792580685
122,1.50188860890485351921237075462708
123,1.50353303476861156302697846459364
124,1.50516413220710656371538041309791
125,1.50678211561722482871913691716960
126,1.50838719426274960062423806994066
127,1.50997957243696427079395823274518
128,1.51155944961886478320205391502479
129,1.51312702062328232395322142983457
130,1.51468247574519901011044138544139
131,1.51622600089852388733077337013573
132,1.51775777774958156861033405707350
133,1.51927798384555406485532829865144
134,1.52078679273810508203700546768182
135,1.52228437410239795134602876862490
136,1.52377089385171467123138600144405
137,1.52524651424787023226528763301313
138,1.52671139400760278378499770734616
139,1.52816568840511809535687725747142
140,1.52960954937095132013965606996713
141,1.53104312558730450973401692354636
142,1.53246656258001025683843955643430
143,1.53388000280726319186204041085001
144,1.53528358574525388000805072628216
145,1.53667744797083547758262586240250
146,1.53806172324134563753259726965763
147,1.53943654257169795124987427054411
148,1.54080203430885825564685488123111
149,1.54215832420380760643285901070001
150,1.54350553548109555844450492479536
151,1.54484378890607966725905221356447
152,1.54617320284994151123519815056650
153,1.54749389335256818364906227750211
154,1.54880597418338315414118221522751
155,1.55010955690020473544044412791597
156,1.55140475090621002170092029145439
157,1.55269166350507534502749692644467
158,1.55397039995436506826369223854341
159,1.5552410635172323868470811923496
160,1.5565037555124984772420386157141
161,1.5577585753631684880407090687588
162,1.5590056206434438348035534199452
163,1.5602449871242856519087995132873
164,1.5614767688175840379756900962724
165,1.5627010580189816950491146510252
166,1.5639179453494024771043453989470
167,1.5651275197953320801612418835655
168,1.5663298687478935628913116528648
169,1.5675250780407627597782255716462
170,1.5687132319869633299172916236152
171,1.5698944134145816358846530310273
172,1.5710687037014393193039381266808
173,1.5722361828087589754110130720185
174,1.5733969293138587701006577661545
175,1.5745510204419099843579949064505
176,1.5756985320967871923972757294036
177,1.5768395388910443340152883238640
178,1.5779741141750458355253411701491
179,1.5791023300652792241873265852309
180,1.5802242574718801825025062121147
181,1.5813399661253926909288208882478
182,1.5824495246027919543717312255104
183,1.5835530003527931616940939153221
184,1.5846504597204703197506655417205
185,1.5857419679712069700399297980616
186,1.5868275893139997565620396731074
187,1.5879073869241386453494318358878
188,1.5889814229652792319537290165512
189,1.5900497586109308679455594854962
190,1.5911124540653762574708694482094
191,1.5921695685840417463810501708836
192,1.5932211604933346861046561106228
193,1.5942672872099661760728499545696
194,1.5953080052597725254447933069782
195,1.5963433702960533664547187132966
196,1.5973734371174401112430105416957
197,1.5983982596853091274542413058811
198,1.5994178911407537945429780166368
199,1.6004323838211282746024551336842
200,1.6014417892761769378768081716052
201,1.6024461582837604193352905976880
202,1.6034455408651916824194061659234
203,1.6044399863001927446446822427326
204,1.6054295431414836799181703090594
205,1.6064142592290138628833593644803
206,1.6073941817038484739890280140440
207,1.6083693570217161359071402083235
208,1.6093398309662319027040369449526
209,1.6103056486618013445921009394145
210,1.6112668545862172238605655676034
211,1.6122234925829561209414381946570
212,1.6131756058731852377322867353761
213,1.6141232370674837560633088083056
214,1.6150664281772937269919358085081
215,1.6160052206260996971491247871507
216,1.6169396552603510265874542373055
217,1.6178697723601308571660238436995
218,1.6187956116495807039145868896353
219,1.6197172123070839423053433368527
220,1.6206346129752206995525455322442
221,1.6215478517704920522219728080539
222,1.6224569662928307275079367377012
223,1.6233619936348918690009993918600
224,1.6242629703911389262365186275449
225,1.6251599326667272245583748654234
226,1.6260529160861887532304461565374
227,1.6269419558019268146338984430407
228,1.6278270865025223447412331226284
229,1.6287083424208590570018930748867
230,1.6295857573420720958673501756343
231,1.6304593646113219892095272080831
232,1.6313291971414043085367289184552
233,1.6321952874201900224946486862606
234,1.6330576675179126897014194762746
235,1.6339163690942956619996248204528
236,1.6347714234055289968762048045764
237,1.6356228613110996991596823871458
238,1.6364707132804770229878865963978
239,1.6373150093996582696077785972410
240,1.6381557793775772344055123818509
241,1.6389930525523795844960109467278
242,1.6398268578975680228024763853387
243,1.6406572240280212693786407787487
244,1.6414841792058885481894271553632
245,1.6423077513463639524398302278952
246,1.6431279680233432069983959182295
247,1.6439448564749642096794567804383
248,1.6447584436090389319165786453727
249,1.6455687560083716473210189647420
250,1.6463758199359738722239093804565
251,1.6471796613401739176071395895800
252,1.6479803058596238503158578050931
253,1.6487777788282089351486229777166
254,1.6495721052798592140751535846360
255,1.6503633099532671020039975636144
256,1.6511514172965110838596459413316
257,1.6519364514715919037063034228691
258,1.6527184363588776899698267934960
259,1.6534973955614648196010347081283
260,1.6542733524094549068774865237687
261,1.6550463299641482298935973560011
262,1.6558163510221583194637476274391
263,1.6565834381194465603178072201956
264,1.6573476135352822547395531047259
265,1.6581088992961266731728709029075
266,1.6588673171794432588254715775911
267,1.6596228887174371987993077084951
268,1.6603756352007243947439290955520
269,1.6611255776819341022290453595463
270,1.6618727369792409622575672737670
271,1.6626171336798357081524977653512
272,1.6633587881433285266585966666952
273,1.6640977205050925156499435692064
274,1.6648339506795444467374411589305
275,1.6655674983633667076322368039434
276,1.6662983830386687018935504916144
277,1.6670266239760951893512278629144
278,1.6677522402378733211265939547152
279,1.6684752506808098716963413988020
280,1.6691956739592307608449950120535
281,1.6699135285278707543091048980074
282,1.6706288326447108393612049851237
283,1.6713416043737664877597624733367
284,1.6720518615878239625801748860461
285,1.6727596219711314761669733688636
286,1.6734649030220412239324879830146
287,1.6741677220556073532727019756091
288,1.6748680962061362693560155414479
289,1.6755660424296939258288580454841
290,1.6762615775065708329449680078810
291,1.6769547180437026240384020113641
292,1.6776454804770490652263227795380
293,1.6783338810739354140958142914210
294,1.6790199359353511642686679174601
295,1.6797036609982082629688620304366
296,1.6803850720375663871319778297364
297,1.6810641846688152097608320550518
298,1.6817410143498229732581857658460
299,1.6824155763830481725711703554276
300,1.6830878859176160987298693753283
301,1.6837579579513606541947397158857
302,1.6844258073328335329222867789097
303,1.6850914487632779382545079288505
304,1.6857548967985704161380657364027
305,1.6864161658511322321762188505735
306,1.6870752701918095557099437166956
307,1.6877322239517196328780447477972
308,1.6883870411240704270813562203628
309,1.6890397355659498161128557054834
310,1.6896903210000846810966326434405
311,1.6903388110165734821350046914508
312,1.6909852190745898337924131402832
313,1.6916295585040584731617236657896
314,1.6922718425073054247827019949857
315,1.6929120841606816820521416150614
316,1.6935502964161617807641558350051
317,1.6941864921029148033818394152006
318,1.6948206839288531652820053760228
319,1.6954528844821563245309120928951
320,1.6960831062327694164461113526629
321,1.6967113615338807318748411643516
322,1.6973376626233741536162382495237
323,1.6979620216252600650231689026703
324,1.6985844505510837079193804439316
325,1.6992049613013127518093839030709
326,1.6998235656667023116038504201844
327,1.7004402753296402346124670942096
328,1.7010551018654698459948772385041
329,1.7016680567437951275247694915900
330,1.7022791513297647613290181752694
331,1.7028883968853364771745607701810
332,1.7034958045705227645229333574584
333,1.7041013854446183278862045048704
334,1.7047051504674074694859717408868
335,1.7053071105003557141259667795499
336,1.7059072763077817343082197384577
337,1.7065056585580124478165742935372
338,1.7071022678245223465975646122020
339,1.7076971145870531214238131481242
340,1.7082902092327196736578181321574
341,1.7088815620570982276717367858009
342,1.7094711832652990410506108579274
343,1.7100590829730233503457163502919
344,1.7106452712076045460630661739765
345,1.7112297579090353961989290477454
346,1.7118125529309787930950156778157
347,1.7123936660417655889495527762523
348,1.7129731069253763316860558319333
349,1.7135508851824104460820291197760
350,1.7141270103310404024757601923160
351,1.7147014918079529606330108508405
352,1.7152743389692771711165341053542
353,1.7158455610914984185146456907719
354,1.7164151673723599209835577329334
355,1.7169831669317520513654908883277
356,1.7175495688125876896498860132578
357,1.7181143819816668458009685628904
358,1.7186776153305297969379390046235
359,1.7192392776762944839916408588146
360,1.7197993777624871057424453305401
361,1.7203579242598576550941014457728
362,1.7209149257671868791694746114150
363,1.7214703908120792588276048406791
364,1.7220243278517470315825752680486
365,1.7225767452737834942778628962492
366,1.7231276513969244631731187559844
367,1.7236770544718007834411157651828
368,1.7242249626816786767912880051119
369,1.7247713841431925597533531358492
370,1.7253163269070660457843790492611
371,1.7258597989588239844969485617357
372,1.7264018082194944944760549136002
373,1.7269423625463009563892258977056
374,1.7274814697333482748582669725211
375,1.7280191375122941006512061194003
376,1.7285553735530164693994354393901
377,1.7290901854642696460393167241529
378,1.7296235807943313423792528909209
379,1.7301555670316431475826489913086
380,1.7306861516054409283209545586714
381,1.7312153418863780740212472117502
382,1.7317431451871387053676320828913
383,1.7322695687630455207066645910177
384,1.7327946198126572440463972851618
385,1.7333183054783592958922295749240
386,1.7338406328469483455604069520644
387,1.7343616089502064942929199340791
388,1.7348812407654690259591337698410
389,1.7353995352161864000159397678494
390,1.7359164991724776758179514551317
391,1.7364321394516756852030432515397
392,1.7369464628188675617146371804216
393,1.7374594759874280999306878612239
394,1.7379711856195445259798176190714
395,1.7384815983267355360998443943566
396,1.7389907206703642540891290455661
397,1.7394985591621447375408413831554
398,1.7400051202646420409767037725405
399,1.7405104103917644016531804264280
400,1.7410144359092518479793899172263
401,1.7415172031351572794478039707220
402,1.7420187183403207632755892174436
403,1.7425189877488398684775054253324
404,1.7430180175385339304411447429140
405,1.7435158138413997114305141181476
406,1.7440123827440645660335268612159
407,1.7445077302882342282539597843517
408,1.7450018624711327234225397469035
409,1.7454947852459372659847300819500
410,1.7459865045222106576239474604703
411,1.7464770261663254457184414709071
412,1.7469663560018834247015885495602
413,1.7474544998101315593650806838283
414,1.7479414633303707539309424867299
415,1.7484272522603617508347664182651
416,1.7489118722567245888333581742592
417,1.7493953289353344689036657329901
418,1.7498776278717111911490040013236
419,1.7503587746014064412043108475915
420,1.7508387746203839080423779914507
421,1.7513176333853961853443432393635
422,1.7517953563143577380165840544906
423,1.7522719487867117699739139367545
424,1.7527474161437946068929184590680
425,1.7532217636891939732744891327009
426,1.7536949966891047706348632361760
427,1.7541671203726798414329394654832
428,1.7546381399323757324002045863117
429,1.7551080605242973696387091836708
430,1.7555768872685345075699524465603
431,1.7560446252494974553664029356875
432,1.7565112795162492303561926368946
433,1.7569768550828294762743980312544
434,1.7574413569285812442739699692965
435,1.7579047899984684603459016129004
436,1.7583671592033919801136248252367
437,1.7588284694205023923462627613862
438,1.7592887254935085532284647069931
439,1.7597479322329825326650489380942
440,1.7602060944166620438070667730412
441,1.7606632167897475156246852679884
442,1.7611193040651973721451359118819
443,1.7615743609240211660232545663678
444,1.7620283920155651857863991242680
445,1.7624814019577998673834663988165
446,1.7629333953376000343572682850972
447,1.7633843767110251357786636036363
448,1.7638343506035927001130394589179
449,1.7642833215105528454926545186037
450,1.7647312938971559988041488097191
451,1.7651782721989213266533283868335
452,1.7656242608218987195225533821178
453,1.7660692641429300721596757282070
454,1.7665132865099062491133412975231
455,1.7669563322420233592531682336190
456,1.7673984056300336362390614838398
457,1.7678395109364956206115882896699
458,1.7682796523960200393644497053513
459,1.7687188342155138968878909594129
460,1.7691570605744224195893568078378
461,1.7695943356249667038795543742420
462,1.7700306634923802805368764660413
463,1.7704660482751431991832709393380
464,1.7709004940452117937394384706342
465,1.7713340048482480975559859855406
466,1.7717665847038460388785064578379
467,1.7721982376057536971231514657938
468,1.7726289675220966355636741033779
469,1.7730587783955947870862959798255
470,1.7734876741437804175122788461048
471,1.7739156586592114335535789824870
472,1.7743427358096843329717545925189
473,1.7747689094384421478000973929058
474,1.7751941833643848845795739610907
475,1.7756185613822713843205783317799
476,1.7760420472629251159512829976466
477,1.7764646447534342362047833498984
478,1.7768863575773505918879554280759
479,1.7773071894348865538700654493037
480,1.7777271440031100773252483897528
481,1.7781462249361365390560748377857
482,1.7785644358653209206369661267490
483,1.7789817803994457173246075092000
484,1.7793982621249073924403971989608
485,1.7798138846059028540496873726703
486,1.7802286513846105386786345769332
487,1.7806425659813729507982166642312
488,1.7810556318948752545074066074987
489,1.7814678526023231454601491186557
490,1.7818792315596178660245736780231
491,1.7822897722015304978174684215024
492,1.7826994779418741196591122653370
493,1.7831083521736738058130624902771
494,1.7835163982693355584044316213824
495,1.7839236195808123663629083761237
496,1.7843300194397706351606435241884
497,1.7847356011577526727114428713543
498,1.7851403680263391765280598321448
499,1.7855443233173092192996709251073
500,1.785947470282799863199398275770
501,1.786349812155461148767985967513
502,1.786751352148613913358993351023
503,1.787152093456401907071501095214
504,1.787552039253946049804514244020
505,1.787951192697493676690935440287
506,1.788349556924568501786968684542
507,1.788747135054119147828775492411
508,1.789143930186665881795826483819
509,1.789539945404443786947467352673
510,1.789935183771548424342711012143
511,1.790329648334077214689162154364
512,1.790723342120270440485371067991
513,1.791116268140650483960272577293
514,1.791508429388159977039344083050
515,1.791899828838299237401639809571
516,1.792290469449261200783157222301
517,1.792680354162064924083132276490
518,1.793069485900689444477621243443
519,1.793457867572204776302560484043
520,1.793845502066902902528302946180
521,1.794232392258425555872884241153
522,1.794618541003893065573639950640
523,1.795003951144030706793462623067
