Eigenstate,Potential Energy
1,0.500000000014203599222716547465766240
2,0.64623093774382829626252285254576216
3,0.73633760997731434208898755645167795
4,0.79966527838148870641078566726098948
5,0.8480465762682776517971496560048307
6,0.8870659983907285471666502494676304
7,0.9197208261862533280582263174536044
8,0.9477838460314026305124041551301402
9,0.9723835569322296390885811257204258
10,0.9942802130371656077089657796936036
11,1.0140093844871549463417321958110315
12,1.0319621665867593206586621588455681
13,1.0484326894017344619531513552199391
14,1.0636476506151830694821954255282190
15,1.0777854313417344912963151796797570
16,1.090988900997986587432453168916919
17,1.103374250764008081888280034164901
18,1.115037244589536782914040550285916
19,1.126057742297956412079942117126062
20,1.136503037220232536129439770197462
21,1.146430362276609406706443763134815
22,1.155888801135349863889402692585517
23,1.164920766149259832359612030573090
24,1.173563155756110368530940230443426
25,1.181848271274563972207718326190245
26,1.189804550711762279600349032708764
27,1.197457161725901857068433188284014
28,1.204828484985274008352267112011295
29,1.211938511370216688275177032302995
30,1.218805170814939047806189877357932
31,1.225444606440240636148864947196688
32,1.231871404550247701415979546811774
33,1.238098788756641227778110825317199
34,1.244138784743305081166633110198934
35,1.250002360845127570184383877681262
36,1.255699548581210850544564229115878
37,1.261239546478658053015776333709195
38,1.266630809892689271849731568941660
39,1.271881129030988901262459347693507
40,1.276997696994366024084953141952221
41,1.281987169329059283051228333763720
42,1.286855716331025063745648344265443
43,1.291609069136061473363543094221620
44,1.296252560461526583974960906971709
45,1.300791160727839840017472655218828
46,1.305229510174819247178081412299628
47,1.309571947494430347515929802029276
48,1.313822535423936621448719706964642
49,1.317985083678778413345503053870815
50,1.32206316955038476382885963148933
51,1.32606015644865556942841493400949
52,1.32997921063050627593789118145776
53,1.33382331632341719328997481389493
54,1.33759528942536838831400203095462
55,1.34129778993906561923544176551005
56,1.34493333327828820565593670437475
57,1.34850430056699076263788622088845
58,1.35201294803699354123019651144399
59,1.35546141561734217049982136389409
60,1.35885173479739308843408733435179
61,1.36218583583611672157653592352768
62,1.36546555438180946814751260623089
63,1.36869263755916365038191365891752
64,1.37186874957433212189589208020976
65,1.37499547688308937592275065653028
66,1.37807433296234366120534486386226
67,1.38110676272099232100742468646935
68,1.38409414658235640989866267767140
69,1.38703780426711797224200243141186
70,1.38993899830275509804868068212484
71,1.39279893728287116813553131021243
72,1.39561877889751645813999559989798
73,1.39839963275354726454503768088872
74,1.40114256300224886731385096197925
75,1.40384859078981754263147019380375
76,1.40651869654484728249545893105638
77,1.40915382211566447947994038730737
78,1.41175487276918803681723724701901
79,1.41432271906194554394930087973071
80,1.41685819859293803205683629056782
81,1.41936211764719648259749408431262
82,1.42183525273811181133111666710808
83,1.42427835205593131652045552885619
84,1.42669213682919028827969884991504
85,1.42907730260528819986952868448425
86,1.43143452045590303634819371551504
87,1.43376443811247984518820416071419
88,1.43606768103660621573263816888226
89,1.43834485342970389220358330943826
90,1.44059653918612250824595543256043
91,1.44282330279339997893929928579105
92,1.44502569018316578867105227560305
93,1.44720422953590115820914921455552
94,1.44935943204252714557375270603745
95,1.45149179262557058127888726216461
96,1.45360179062245591639837428964497
97,1.45568989043328671980080893871723
98,1.45775654213530768660369898675045
99,1.45980218206608454770768135708587
100,1.46182723337729292985575447434921
101,1.46383210656087791150791553773992
102,1.46581719994922044510057391843422
103,1.46778290019083890264720851321355
104,1.46972958270304673692631513083476
105,1.47165761210289417674584033962340
106,1.47356734261763111052953970010451
107,1.47545911847585023051531529346917
108,1.47733327428039027030119720881214
109,1.47919013536401057494045988080533
110,1.48103001812878582266233482610369
111,1.48285323037010385609623166741954
112,1.48466007158610014724391789133199
113,1.48645083327330688465003922108921
114,1.48822579920924591346501327150296
115,1.48998524572265431059176125780683
116,1.49172944195198304545952059703464
117,1.49345865009277746396122463815821
118,1.49517312563450730198535137306908
119,1.49687311758738022125686473778380
120,1.49855886869964701796687084603726
121,1.50023061566586838742639876210479
122,1.50188858932659421484691729544645
123,1.50353301485987416941821736913671
124,1.50516411196500069904560440720440
125,1.50678209503885595684526538774356
126,1.50838717334521899319909022094553
127,1.50997955117736896928384836877934
128,1.51155942801429756079971784039916
129,1.51312699867083164738507337230913
130,1.51468245344194900133715827386132
131,1.51622597824155428514019600194685
132,1.51775775473596769010167184441431
133,1.51927796047236676681365054699211
134,1.52078676900241072219699216580665
135,1.52228435000125834954395258809990
136,1.52377086938218707044429149328754
137,1.52524648940700725953632533159312
138,1.52671136879245241103387232423693
139,1.52816566281272360007435779468636
140,1.52960952339835124596508977906417
141,1.53104309923153262691479090637528
142,1.53246653583809552257031998635946
143,1.53387997567622971050931959257812
144,1.53528355822212086320242633974512
145,1.53667742005261720419972612716355
146,1.53806169492505141354506999822434
147,1.53943651385433206945593626285782
148,1.54080200518741995527321472970785
149,1.54215829467529103261090008113288
150,1.54350550554248972155862134448559
151,1.54484375855436840216602156194716
152,1.54617317208210343635346716710602
153,1.54749386216557665991681867241894
154,1.54880594257420624384208267176102
155,1.55010952486580516089585221426765
156,1.55140471844354512382751457543586
157,1.55269163061109704175909415908787
158,1.55397036662601981283613124034384
159,1.5552410297514611259450019533813
160,1.5565037213062366090063834227240
161,1.5577585407133458199357790778958
162,1.5590055855469845413424252158849
163,1.5602449515781082322359323404650
164,1.5614767328186012733055013694078
165,1.5627010215641006059593511092326
166,1.5639179084355242806830239083703
167,1.5651274824193521470059469924645
168,1.5663298309067013739596361869088
169,1.5675250397312418630881227058463
170,1.5687131932059912970961088191966
171,1.5698943741590300185655931997502
172,1.5710686639681736053687076253068
173,1.5722361425946385450774152824063
174,1.5733968886157368518538499484872
175,1.5745509792566336107241409638395
176,1.5756984904211971555583414447890
177,1.5768394967219751412636708922695
178,1.5779740715093256645570498438577
179,1.5791022868997298782324218790032
180,1.5802242138033170452914946155601
181,1.5813399219506246814936828469745
182,1.5824494799186214816802674064257
183,1.5835529551560160791162728854079
184,1.5846504140078758793556202120744
185,1.5857419217395777767222682028068
186,1.5868275425601117219961230277580
187,1.5879073396447609417702621650877
188,1.5889813751571742457630729294005
189,1.5900497102708541531419397100978
190,1.5911124051900764889020466729923
191,1.5921695191702606728175996591688
192,1.5932211105378070831332262550461
193,1.5942672367094197988077343368779
194,1.5953079542109280610563735303203
195,1.5963433186956243865133517964941
196,1.5973733849621330238769445182318
197,1.5983982069718231293201180402802
198,1.5994178378657808226074665852565
199,1.6004323299813529577335602251739
200,1.6014417348682765482433923521170
201,1.6024461033044048236133405924611
202,1.6034454853110432928035437975287
203,1.6044399301679064696634360794227
204,1.6054294864277068750515063880738
205,1.6064142019303862809809738997632
206,1.6073941238170022154878516875463
207,1.6083692985432755988465528712244
208,1.6093397718928137325372385500492
209,1.6103055889900143837921005934818
210,1.6112667943126624613192180992880
211,1.6122234317042266411599762298776
212,1.6131755443858661698017569127377
213,1.6141231749681522224333458928412
214,1.6150663654625187920262517523270
215,1.6160051572924423154661203580491
216,1.6169395913043639911843433497730
217,1.6178697077783587473248324417481
218,1.6187955464385598328883872459600
219,1.6197171464633423047830917155710
220,1.6206345464952779189008386173602
221,1.6215477846508593275020998246477
222,1.6224568985300107802664917538041
223,1.6233619252253788898324033753429
224,1.6242629013314185211157482501099
225,1.6251598629532763609421691004665
226,1.6260528457154757059252713440762
227,1.6269418847704111114289572632094
228,1.6278270148066547118047544325161
229,1.6287082700570813640389622916231
230,1.6295856843068173010374796920761
231,1.6304592909010140838022414008463
232,1.6313291227524582614033255242737
233,1.6321952123490117242343535046043
234,1.6330575917608988966001300865176
235,1.6339162926478339397193998452401
236,1.6347713462659976638936753394531
237,1.6356227834748677699515222782402
238,1.6364706347439041509614886741571
239,1.6373149301590946897752690240909
240,1.6381556994293637057991970063653
241,1.6389929718928473323233699283821
242,1.6398267765230386803388004214370
243,1.6406571419348068195953514268993
244,1.6414840963902912651161950265761
245,1.6423076678046763422584932073504
246,1.6431278837518479488667473829309
247,1.6439447714699340962829067469115
248,1.6447583578667368097457060515118
249,1.6455686695250503566730081340476
250,1.6463757327078761869258615870058
251,1.6471795733635324844592129056668
252,1.6479802171306611282522066053728
253,1.6487776893431371341140865913840
254,1.6495720150348802336155868283017
255,1.6503632189445724695681903561591
256,1.6511513255202818928107097116271
257,1.6519363589239987510404255770379
258,1.6527183430360806137402534727104
259,1.6534973014596132360451391562961
260,1.6542732575246875472447614411812
261,1.6550462342925930769724128251328
262,1.6558162545599325438046508262784
263,1.6565833408626564561511935371227
264,1.6573475154800231755854726747742
265,1.6581088004384829671407513290927
266,1.6588672175154882036014685145736
267,1.6596227882432329363190594959035
268,1.6603755339123218655484125440191
269,1.6611254755753729795012337008154
270,1.6618726340505495855375804127374
271,1.6626170299250310167289026670260
272,1.6633586835584159926335341721132
273,1.6640976150860660766756875210937
274,1.6648338444223864384220344918713
275,1.6655673912640477956117915039428
276,1.6662982750931478135688114855509
277,1.6670265151803194452859423601091
278,1.6677521305877779661052749479076
279,1.6684751401723182054389182026132
280,1.6691955625882540683758977470670
281,1.6699134162903082359782615421296
282,1.6706287195364495405144495715708
283,1.6713414903906812280560862474886
284,1.6720517467257772649533108972986
285,1.6727595062259734954286765335032
286,1.6734647863896096750149776564046
287,1.6741676045317274391076138856546
288,1.6748679777866206083872495419590
289,1.6755659231103424791566720585321
290,1.6762614572831708310986407740455
291,1.6769545969120284933747865128592
292,1.6776453584328623539515576302092
293,1.6783337581129847179074901074233
294,1.6790198120533720516156925300875
295,1.6797035361909231999262547926178
296,1.6803849463006846618877958521964
297,1.6810640579980328567124296036534
298,1.6817408867408226967149703546311
299,1.6824154478314992700610160925779
300,1.6830877564191743839062775973809
301,1.6837578275016683793419294032639
302,1.6844256759275193110552057128233
303,1.6850913163979566648108894672372
304,1.6857547634688431902595650574183
305,1.6864160315525862775756296926589
306,1.6870751349200181411215050108017
307,1.6877320877022419920878172149391
308,1.6883869038924516785345985277845
309,1.6890395973477208820953572581487
310,1.6896901817907622064868781474159
311,1.6903386708116597527241001430905
312,1.6909850778695726941685848243451
313,1.6916294162944112441562382323975
314,1.6922716992884868204740412297167
315,1.6929119399281357263251962288401
316,1.6935501511653177234211949136111
317,1.6941863458291870358020817794723
318,1.6948205366276411356263211836841
319,1.6954527361488444524885489803308
320,1.6960829568627270075199527746749
321,1.6967112111224618912019239080136
322,1.6973375111659176993201549376655
323,1.6979618691170894410948519172425
324,1.6985842969875068966228998112898
325,1.6992048066776221856092685262180
326,1.6998234099781747846104412742295
327,1.7004401185715368135418035081877
328,1.7010549440330357806395438213558
329,1.7016678978322597607321330282280
330,1.7022789913343414384832911073413
331,1.7028882358012224551789604560462
332,1.7034956423928991202784081546584
333,1.7041012221686498662629941046472
334,1.7047049860882426307841972542331
335,1.7053069450131264810216607830009
336,1.7059071097076035382809410635259
337,1.7065054908399840750547366689319
338,1.7071020989837258433778444079411
339,1.7076969446185536989605312461250
340,1.7082900381315656124185852016826
341,1.7088813898183207811554147282168
342,1.7094710098839123390234827895276
343,1.7100589084440243015321476426255
344,1.7106450955259727402863750116741
345,1.7112295810697330059685872661857
346,1.7118123749289504746360547016360
347,1.7123934868719383826700267306155
348,1.7129729265826595620784711127820
349,1.7135507036616956210545373136788
350,1.7141268276272011121088545380090
351,1.7147013079158447753576346689781
352,1.7152741538837375393091424118116
353,1.7158453748073465635050166086304
354,1.7164149798843967374709490981953
355,1.7169829782347600012388175060917
356,1.7175493789013306972074438699793
357,1.7181141908508901923653349018719
358,1.7186774229749600148614660822146
359,1.7192390840906392500480617110574
360,1.7197991829414351339000664677743
361,1.7203577281980785886659000815213
362,1.7209147284593311823355433911105
363,1.7214701922527781075252898919238
364,1.7220241280356122037594682401551
365,1.7225765441954072595030483383951
366,1.7231274490508794716018268121596
367,1.7236768508526399541279452448952
368,1.7242247577839350853471452981391
369,1.7247711779613793253411792734449
370,1.7253161194356762174488198900435
371,1.7258595901923304268228513152999
372,1.7264015981523497725708112144498
373,1.7269421511729372201840070112420
374,1.7274812570481771427228420952869
375,1.7280189235097065423173517102377
376,1.7285551582273826881876706155374
377,1.7290899688099389603837929806419
378,1.7296233628056320666454193631093
379,1.7301553477028824721724890997127
380,1.7306859309309047990603242270893
381,1.7312151198603310708239921162362
382,1.7317429218038239201709462473205
383,1.7322693440166844346722670967456
384,1.7327943936974496040219132271994
385,1.7333180779884829901272682212953
386,1.7338404039765592786715977661559
387,1.7343613786934384614723392532132
388,1.7348810091164335864202085994814
389,1.7353993021689727496712941477869
390,1.7359162647211525191831218069366
391,1.7364319035902831065203976091235
392,1.7369462255414288952913997086549
393,1.7374592372879417996852442643112
394,1.7379709454919860341900767524050
395,1.7384813567650571513477785712182
396,1.7389904776684949983952436193258
397,1.7394983147139902226824743888841
398,1.7400048743640843339838339796721
399,1.7405101630326618894755405365119
400,1.7410141870854391013184395346226
401,1.7415169528404449157473232437243
402,1.7420184665684953088642537443414
403,1.7425187344936636198571760341616
404,1.7430177627937448147140572388638
405,1.7435155576007111458590043097568
406,1.7440121250011653167254220553890
407,1.7445074710367882679669658994178
408,1.7450016017047790884809196621044
409,1.7454945229582899123013623537681
410,1.7459862407068583158208354382172
411,1.7464767608168314753388064188958
412,1.7469660891117856675063926551026
413,1.7474542313729421917070747415519
414,1.7479411933395761381988742537703
415,1.7484269807094222859607443821233
416,1.7489115991390745598560778121748
417,1.7493950542443818955799925676564
418,1.7498773516008376756067123629807
419,1.7503584967439670146285198019941
420,1.7508384951697068763879785821868
421,1.7513173523347829740670392263770
422,1.7517950736570827358147639486235
423,1.7522716645160221715337077771164
424,1.7527471302529102546285701351691
425,1.7532214761713071980563024884007
426,1.7536947075373802314966657503097
427,1.7541668295802543642512174847922
428,1.7546378474923581475366978165368
429,1.7551077664297683485383715859925
430,1.7555765915125463983062279233480
431,1.7560443278250741171252780802398
432,1.7565109804163858668508591613001
433,1.7569765543004924680820904161935
434,1.7574410544567079800863492957767
435,1.7579044858299671671245616370783
436,1.7583668533311415521419772748547
437,1.7588281618373522191690594179781
438,1.7592884161922783464702829834381
439,1.7597476212064621517186782234016
440,1.7602057816576113203830254841151
441,1.7606629022908960771525786820530
442,1.7611189878192444640179759364063
443,1.7615740429236354726753546577854
444,1.7620280722533846505957778350227
445,1.7624810804264315113890676068218
446,1.7629330720296197737818188048533
447,1.7633840516189775983475597333346
448,1.7638340237199910401595163207297
449,1.7642829928278785578396353520659
450,1.7647309634078587314130622299208
451,1.7651779398954186920297395858360
452,1.7656239266965761048689384856497
453,1.7660689281881404482649688818918
454,1.7665129487179699779693912956974
455,1.7669559926052280003876305433218
456,1.7673980641406337517544336894999
457,1.7678391675867125789200637945355
458,1.7682793071780418176079266423791
459,1.7687184871214948820324794200359
460,1.7691567115964832081838397261656
461,1.7695939847551939004667514309066
462,1.7700303107228262947071741712267
463,1.7704656935978260412591596924576
464,1.7709001374521148690800133861723
465,1.7713336463313199994701836692673
466,1.7717662242550003401356321138582
467,1.7721978752168687400494426132965
468,1.7726286031850153207132010893470
469,1.7730584121021243604746017347772
470,1.7734873058856922564010363954315
471,1.7739152884282408307744221755307
472,1.7743423635975302797771951659129
473,1.7747685352367671152294979675085
474,1.7751938071648146033280817021346
475,1.7756181831763946230985151869651
476,1.7760416670422934583216843614161
477,1.7764642625095618558866007776393
478,1.7768859733017140265121436064969
479,1.7773068031189244771757950320855
480,1.7777267556382230697833630588911
481,1.7781458345136868569068715844805
482,1.7785640433766322633289631391397
483,1.7789813858358029933411622677981
484,1.7793978654775564835008700972311
485,1.7798134858660503776713446988386
486,1.7802282505434236090860176167780
487,1.7806421630299789381658780700265
488,1.7810552268243615425223112115785
489,1.7814674454037368871896958188684
490,1.7818788222239657380758957733389
491,1.7822893607197784527739936483552
492,1.7826990643049471367796538801053
493,1.7831079363724556399790699971062
494,1.7835159802946684873006117312185
495,1.7839231994234969358763539647626
496,1.7843295970905654029835142908271
497,1.7847351766073739501320018385374
498,1.7851399412654607683948270221824
499,1.7855438943365621621432301845937
500,1.785947039072772161496270782696
501,1.786349378706697509330997220919
502,1.786750916451615477837957712175
503,1.787151655501625982548427502390
504,1.787551599031805837467051596862
505,1.787950750198357998567702139757
506,1.788349112138761525528370746457
507,1.788746687971920109516455183348
508,1.789143480798308806764121107026
509,1.789539493700117208599781319868
510,1.789934729741395100945559783089
511,1.790329191968193844126783141934
512,1.790722883408707372957268762886
513,1.791115807073411432604063842019
514,1.791507965955201726461006129081
515,1.791899363029531350095306985334
516,1.792290001254545721422104361052
517,1.792679883571216081663725648583
518,1.793069012903473352297610090317
519,1.793457392158339129755029242423
520,1.793845024226056674692272642127
521,1.794231911980218690881626035476
522,1.794618058277896169741218010414
523,1.795003465959764737480281069450
