Eigenstate,Potential Energy
1,0.500000000016299770375422231576237487
2,0.64623093775751098827068686453625175
3,0.73633761001750605056423138801243889
4,0.79966527846520317415127447960138545
5,0.8480465764132876411716563834003190
6,0.8870659986151174844985112868239907
7,0.9197208265082500122495675072376369
8,0.9477838464693122135206132631890964
9,0.9723835575044014526122145992740987
10,0.9942802137619767608720675338381876
11,1.0140093853830013475958835222141642
12,1.0319621676720504829078322489254343
13,1.0484326906948903672343789237631785
14,1.0636476521346322188796210136255949
15,1.0777854331059126698402996891307962
16,1.090988903025336078073993087941937
17,1.103374253072977171548775266792542
18,1.115037247198579464366345043849940
19,1.126057745225532220687789436065956
20,1.136503040484806481679862304622525
21,1.146430365896651973723996497599704
22,1.155888805129337062209372622688251
23,1.164920770535673285221233831774875
24,1.173563160553437429117840371169064
25,1.181848276501297862064038808412802
26,1.189804556386402244089174029832285
27,1.197457167866953334267538192796863
28,1.204828491611248808663817671133694
29,1.211938518499633182667748450652171
30,1.218805178466322363080758177096263
31,1.225444614632122855973699792232077
32,1.231871413301168072142039827478285
33,1.238098798085146368249944966072256
34,1.244138794667949195900439626193483
35,1.250002371384472665406632624623360
36,1.255699559753826952679998627742519
37,1.261239558303123429289004784603547
38,1.266630822387590652724614736493681
39,1.271881142214921704491595037027292
40,1.276997710885934580180366202471655
41,1.281987183946877062018876117339274
42,1.286855731693714902952088043853252
43,1.291609085262255806424238674261305
44,1.296252577369867670571158884171742
45,1.300791178436979996563053254715246
46,1.305229528703421078269870168105804
47,1.309571966861166978111067329600551
48,1.313822555647491929721197735337560
49,1.317985104777847264181161468132634
50,1.32206319154367324292423873943781
51,1.32606017935488121796405048294488
52,1.32997923446839832580107216628016
53,1.33382334111171680282579447306120
54,1.33759531518282887858679943455093
55,1.34129781668445271078556518038625
56,1.34493336103038025573920169877528
57,1.34850432934457900293722948487493
58,1.35201297785888231603087994165752
59,1.35546144650234917532115833170339
60,1.35885176676434960911207837932706
61,1.36218586890386787379304504650680
62,1.36546558856921443740272477692798
63,1.36869267288509593240776493936887
64,1.37186878605767976350902964673537
65,1.37499551454275521631634663604615
66,1.37807437181724557367975259310789
67,1.38110680279006345514027774590074
68,1.38409418788454543415555319149508
69,1.38703784682138931702936294457308
70,1.38993904212808919921091872342044
71,1.39279898239826471089886746241292
72,1.39561882532198262150579636552383
73,1.39839968050611596613576586082587
74,1.40114261210196700867503121589173
75,1.40384864125574925499334310125606
76,1.40651874839607417299822419264407
77,1.40915387537128587786671302447661
78,1.41175492744832124259904213272877
79,1.41432277518372607404660658190098
80,1.41685825617651986892230401571012
81,1.41936217671175232282476387432717
82,1.42183531330283331475461124263989
83,1.42427841414002935581129522829309
84,1.42669220045189519904295319327404
85,1.42907736778585003124814694116918
86,1.43143458721359180213905506857704
87,1.43376450646658577547583658845903
88,1.43606775100644000904624614526648
89,1.43834492503459696820310082655986
90,1.44059661244542726094294116625423
91,1.44282337772649003045855735010483
92,1.44502576680943624355893815684542
93,1.44720430787476885829459281348498
94,1.44935951211343092538809217204083
95,1.45149187444797152404068050416338
96,1.45360187421583761056940506422228
97,1.45568997581715551621957263505028
98,1.45775662932919295620270056471422
99,1.45980227108953893982094071613397
100,1.46182732424989263112296039703941
101,1.46383219930222290538172695258949
102,1.46581729457893477196360657354049
103,1.46778299672857092054530026349079
104,1.46972968116846938292471818939117
105,1.47165771251570522891501174288065
106,1.47356744499755345056726801085847
107,1.47545922284263210701195426563012
108,1.47733338065380556265482067031161
109,1.47919024376385905792880219289453
110,1.48103012857489343167841165290579
111,1.48285334288232295305458730281407
112,1.48466018618430978716448102666455
113,1.48645094997741308292660800520894
114,1.48822591803918191382543410037820
115,1.48998536669838085375690699673173
116,1.49172956509348863850820587351979
117,1.49345877542007865040824452894447
118,1.49517325316764893257986248900287
119,1.49687324734643572550836910436020
120,1.49855900070471867640609707232784
121,1.50023074993708760460842492153146
122,1.50188872588412179310391052883967
123,1.50353315372390058336920136351858
124,1.50516425315574637087071064545974
125,1.50678223857657153233196463274345
126,1.50838731925018561856793128532290
127,1.50997969946989856880127605434111
128,1.51155957871473311518558469218941
129,1.51312715179954747302248701877530
130,1.51468260901935103029235802346786
131,1.51622613628808034600018402302839
132,1.51775791527208778963737681879140
133,1.51927812351858337247641528095016
134,1.52078693457925904545624268009831
135,1.52228451812930663007394555335059
136,1.52377104008203686116785061345443
137,1.52524666269929371253355157006861
138,1.52671154469784456432383412313385
139,1.52816584135192466527781203726871
140,1.52960970459209889685633575938353
141,1.53104328310059928887078168568416
142,1.53246672240328866292522054400599
143,1.53388016495839212982272760619822
144,1.53528375024213098744952310978743
145,1.53667761483138937789165768335228
146,1.53806189248353619378791772089621
147,1.53943671421351652095667552345252
148,1.54080220836832794630108391371721
149,1.54215850069898353192268097191560
150,1.54350571443006509629634634365344
151,1.54484397032696271673569259449796
152,1.54617338676089075229340107479241
153,1.54749407977176933676428806559781
154,1.54880616312905524100695414648860
155,1.55010974839060034055000054696624
156,1.55140494495961555481879375762991
157,1.55269186013981130455874517274844
158,1.55397059918878630552851046745364
159,1.5552412653697283712686005531986
160,1.5565039600014935624551100191021
161,1.5577587825071221789295690086315
162,1.5590058304608510554762912786011
163,1.5602451996336770146165814066485
164,1.5614769840375261129847259558062
165,1.5627012759680772814734483347048
166,1.5639181660462908747075505335230
167,1.5651277432586893621351471522469
168,1.5663300949964328496199701271058
169,1.5675253070932344935953326816104
170,1.5687134638621555508653655047761
171,1.5698946481313202584842676448412
172,1.5710689412785884103413981006874
173,1.5722364232652210327529019774457
174,1.5733971726685750025437149612818
175,1.5745512667138605925228440592603
176,1.5756987813049916506745794345392
177,1.5768397910545616735729561215815
178,1.5779743693129749283854252278541
179,1.5791025881967590683813599349656
180,1.5802245186160901883140366712651
181,1.5813402303015529682319784817156
182,1.5824497918301636010746695610927
183,1.5835532706506785532962789557317
184,1.5846507331082134000229521918250
185,1.5857422444681935428364744988400
186,1.5868278689396577787731461154953
187,1.5879076696979385210044537418079
188,1.5889817089067341074832381677331
189,1.5900500477395969286120268896105
190,1.5911127464008530249771710176266
191,1.5921698641459723776661577560239
192,1.5932214593014062733359364308311
193,1.5942675892839100478444540317269
194,1.5953083106193645491916765549196
195,1.5963436789611142520918739966117
196,1.5973737491078357160395774432549
197,1.5983985750209507621522127570318
198,1.5994182098415985307302639548995
199,1.6004327059071792533501528722217
200,1.6014421147674836796505729516535
201,1.6024464872004191351907496547744
202,1.6034458732273455864916690375020
203,1.6044403221280323679420034269295
204,1.6054298824552471854299077002578
205,1.6064146020489873620124732453826
206,1.6073945280503663443193627189503
207,1.6083697069151613403158500035891
208,1.6093401844270363098295479997579
209,1.6103060057104460506681038986079
210,1.6112672152432328759265561473214
211,1.6122238568689232414404405353057
212,1.6131759738087345505063962272509
213,1.6141236086732965137578495490393
214,1.6150668034741020398790069630161
215,1.6160055996346868633814418283352
216,1.6169400380015518638934346917810
217,1.6178701588548320359971548483440
218,1.6187960019187210820561539737797
219,1.6197176063716549009617053358347
220,1.6206350108562664809181992712512
221,1.6215482534891100985497333713920
222,1.6224573718701720216856149511251
223,1.6233624030921612766480485729942
224,1.6242633837495955393322138210124
225,1.6251603499476847066131129638263
226,1.6260533373110156860119007536092
227,1.6269423809920470464597846611635
228,1.6278275156794153403505495263515
229,1.6287087756060602490165724043183
230,1.6295861945571732378563248454394
231,1.6304598058779715103673436068152
232,1.6313296424813076699888397042854
233,1.6321957368551100752416769788634
234,1.6330581210696700342147408209698
235,1.6339168267847690094806660447441
236,1.6347718852566555321920072375266
237,1.6356233273448754454673112149217
238,1.6364711835189572080603613275466
239,1.6373154838649576938743164594576
240,1.6381562580918706407189370434634
241,1.6389935355379020296402693234100
242,1.6398273451766152507532945089266
243,1.6406577156229500863304740069968
244,1.6414846751391171993618935640339
245,1.6423082516403725006769484386682
246,1.6431284727006739131740401602594
247,1.6439453655582219149225050500329
248,1.6447589571208914416693657233355
249,1.6455692739715501172447676719956
250,1.6463763423732731959649109343331
251,1.6471801882744531164376055145898
252,1.6479808373138064646633484745030
253,1.6487783148252834180282066186667
254,1.6495726458428793264384208481745
255,1.6503638551053523100192072141781
256,1.6511519670608469581373952476350
257,1.6519370058714305204852120509719
258,1.6527189954175380342767807788593
259,1.6534979593023331904007031659420
260,1.6542739208559853242258980914129
261,1.6550469031398628441106657654288
262,1.6558169289506478223397604660784
263,1.6565840208243705983689785907307
264,1.6573482010403698445278667433913
265,1.6581094916251766187055548446784
266,1.6588679143563245710495233245940
267,1.6596234907660895172066470591246
268,1.6603762421451584111028219585784
269,1.6611261895462319864576046467142
270,1.6618733537875567904552051445249
271,1.6626177554563958928053450693842
272,1.6633594149124322490350416975207
273,1.6640983522911121604024814850625
274,1.6648345875069260387272701779327
275,1.6655681402566303509930321419382
276,1.6662990300224090213510457347608
277,1.6670272760749817738153428964396
278,1.6677528974766511695729449970358
279,1.6684759130842998413541183671224
280,1.6691963415523300177083196050833
281,1.6699142013355532259890773467347
282,1.6706295106920276702960289046408
283,1.6713422876858464968004214631950
284,1.6720525501898741029692654239027
285,1.6727603158884372979284889793154
286,1.6734656022799673386903866984043
287,1.6741684266795979015163009561450
288,1.6748688062217153901703849802265
289,1.6755667578624662291084689517696
290,1.6762622983822218741090522538719
291,1.6769554443879993812665726428883
292,1.6776462123158404192331539821899
293,1.6783346184331526304632805648681
294,1.6790206788410083783553772951088
295,1.6797044094764029674152364177948
296,1.6803858261144799219806946265985
297,1.6810649443707132552119107623306
298,1.6817417797030560450783267866066
299,1.6824163474140521201770806165072
300,1.6830886626529126059654122596194
301,1.6837587404175577428219977959065
302,1.6844265955566260688466830834564
303,1.6850922427714481405043274027844
304,1.6857556966179883686188985997799
305,1.6864169715087563982209469219899
306,1.6870760817146872954451442901170
307,1.6877330413669877234277030218568
308,1.6883878644589555856290906716286
309,1.6890405648477692258439886960629
310,1.6896911562562465200414796908147
311,1.6903396522745774549350504021795
312,1.6909860663620277064112629206825
313,1.6916304118486146105626697484682
314,1.6922727019367573315951681811703
315,1.6929129497029005462492976263218
316,1.6935511680991130203741311995605
317,1.6941873699546586162553176958109
318,1.6948215679775450819389230651384
319,1.6954537747560477641094785278891
320,1.6960840027602082457771452873209
321,1.6967122643433118277049597000519
322,1.6973385717433399680034922626272
323,1.6979629370844011939288239630788
324,1.6985853723781394630197819683149
325,1.6992058895251217355521630456281
326,1.6998245003162029955327588395126
327,1.7004412164338715409852825286357
328,1.7010560494535717327193299900019
329,1.7016690108450091764371355356046
330,1.7022801119734347698407739936131
331,1.7028893641009090533122925881575
332,1.7034967783875479253869905109138
333,1.7041023658927501015540013562291
334,1.7047061375764045003856777601154
335,1.7053081043000818719069622748118
336,1.7059082768282067262344872840429
337,1.7065066658292124347097074980191
338,1.7071032818766805623562096103184
339,1.7076981354504604961464555396396
340,1.7082912369377754603962241621729
341,1.7088825966343106328425762153979
342,1.7094722247452858585326806252684
343,1.7100601313865125992909853043735
344,1.7106463265854351124494401418448
345,1.7112308202821576781532657328459
346,1.7118136223304553500148239312939
347,1.7123947424987717944523157355924
348,1.7129741904712010304151910529772
349,1.7135519758484566143987891418495
350,1.7141281081488258130666604837439
351,1.7147025968091108510625547804054
352,1.7152754511855569163552341232789
353,1.7158466805547662074726746730534
354,1.7164162941145994370805051567379
355,1.7169843009850651571670977370520
356,1.7175507102091951156026640943720
357,1.7181155307539088830961719055862
358,1.7186787715108669945363536451306
359,1.7192404412973083498409738737402
360,1.7198005488568808122195143986273
361,1.7203591028604567487040871232280
362,1.7209161119069399945348862769392
363,1.7214715845240588369999822585172
364,1.7220255291691500427098261089133
365,1.7225779542299321646610072326516
366,1.7231288680252670067460068333224
367,1.7236782788059121377071018861170
368,1.7242261947552612432513299491917
369,1.7247726239900769488599860558179
370,1.7253175745612118264565145869532
371,1.7258610544543204382306799939695
372,1.7264030715905613740870060388826
373,1.7269436338272892494221397846834
374,1.7274827489587409716999613681713
375,1.7280204247167069673833660416174
376,1.7285566687711988254277485500500
377,1.7290914887311051465363117277377
378,1.7296248921448387655777700868149
379,1.7301568865009771869579250763274
380,1.7306874792288929896991944133921
381,1.7312166776993770776528950287094
382,1.7317444892252518930041542661014
383,1.7322709210619792677196567796233
384,1.7327959804082578766283602626592
385,1.7333196744066139133787144469388
386,1.7338420101439856479135220217259
387,1.7343629946522976147863593132454
388,1.7348826349090283691056347479860
389,1.7354009378377724847780763419418
390,1.7359179103087939841435904329702
391,1.7364335591395715159273848264815
392,1.7369478910953388898708472714543
393,1.7374609128896184415115856359570
394,1.7379726311847458081934618867545
395,1.7384830525923889731623006016169
396,1.7389921836740612285979795652943
397,1.7395000309416276874734645709972
398,1.7400066008578053523576033988357
399,1.7405118998366553069352227960629
400,1.7410159342440713301840068024671
401,1.7415187103982609821097789239766
402,1.7420202345702199062383684855944
403,1.7425205129842021695853237350803
404,1.7430195518181845331748475647792
405,1.7435173572043221185341710515202
406,1.7440139352294015791794544193191
407,1.7445092919352888937941644230261
408,1.7450034333193692842750350236911
409,1.7454963653349821197036098189014
410,1.7459880938918533207025594598907
411,1.7464786248565195241753439546873
412,1.7469679640527475909994984289777
413,1.7474561172619505357135615646972
414,1.7479430902235963020237609355404
415,1.7484288886356136680736195602268
416,1.7489135181547917110899389841406
417,1.7493969843971756798725049959717
418,1.7498792929384564383440630381978
419,1.7503604493143577586529579795072
420,1.7508404590210164457303425323859
421,1.7513193275153592454662351068328
422,1.7517970602154758180868702658474
423,1.7522736625009856128536906408670
424,1.7527491397134022577884777109506
425,1.7532234971564918437639678234749
426,1.7536967400966287097799201431373
427,1.7541688737631462140329210488724
428,1.7546399033486825044468021915012
429,1.7551098340095252010294100815471
430,1.7555786708659478521395975216219
431,1.7560464190025456682961264062811
432,1.7565130834685676830199509692541
433,1.7569786692782406785839363856113
434,1.7574431814110959745831077344674
435,1.7579066248122869029760523847029
436,1.7583690043929048705631260034158
437,1.7588303250302921702459603863805
438,1.7592905915683505231074817269381
439,1.7597498088178460325907116721437
440,1.7602079815567116219635031641150
441,1.7606651145303441148954744663179
442,1.7611212124518995227660819839246
443,1.7615762800025861863714768438801
444,1.7620303218319503913730216507321
445,1.7624833425581637881177070242178
446,1.7629353467683036401500465797847
447,1.7633863390186330705550406923346
448,1.7638363238348745243030063151010
449,1.7642853057124842870704858694240
450,1.7647332891169202129475084960465
451,1.7651802784839101640935936776030
452,1.7656262782197140036586801185048
453,1.7660712927013848850085830406750
454,1.7665153262770262261706746693577
455,1.7669583832660479933384914557902
456,1.7674004679594175904008258596363
457,1.7678415846199100501675316437506
458,1.7682817374823539231539445835864
459,1.7687209307538753778134344823060
460,1.7691591686141401545252755893920
461,1.7695964552155912230264896834918
462,1.7700327946836853563014899447116
463,1.7704681911171272246635889564576
464,1.7709026485880991708964560327831
465,1.7713361711424906351536788185800
466,1.7717687628001243602743949261959
467,1.7722004275549786579930732612567
468,1.7726311693754107516445303424665
469,1.7730609922043736720220039786572
470,1.7734898999596342308884816182533
471,1.7739178965339863392078264918946
472,1.7743449857954639676664249519826
473,1.7747711715875491003463031760189
474,1.7751964577293821855013251111565
475,1.7756208480159640061488331694234
476,1.7760443462183614842391403705043
477,1.7764669560839077513552438692762
478,1.7768886813364011618868283597101
479,1.7773095256763021380177305299082
480,1.7777294927809282410615612958217
481,1.7781485863046460199737975436796
482,1.7785668098790632057798485485529
483,1.7789841671132166318676173006191
484,1.7794006615937586998499688803436
485,1.7798162968851438678233409889278
486,1.7802310765298097457639508308062
487,1.7806450040483596467922004341048
488,1.7810580829397411907383985084143
489,1.7814703166814241880554019653076
490,1.7818817087295756670676065709404
491,1.7822922625192341787000930141874
492,1.7827019814644819667346388900744
493,1.7831108689586149784577277789079
494,1.7835189283743118095953698537377
495,1.7839261630637997758819723419695
496,1.7843325763590213555346435625730
497,1.7847381715717966880002534866880
498,1.7851429519939860740733792050388
499,1.7855469208976499745480539604226
500,1.785950081535208637714601546861
501,1.786352437139597101548779991308
502,1.786753990924423025579590883664
503,1.787154746084118820362889520738
504,1.787554705794095918196617071989
505,1.787953873210894032336170801711
506,1.788352251472331134587356715871
507,1.788749843697651999089831163191
508,1.789146652987674952031753175442
509,1.789542682424935057963484523167
510,1.789937935073829795721330680459
511,1.790332413980760454809196238807
512,1.790726122174273152202821168464
513,1.791119062665198085082561069216
514,1.791511238446787695724608108533
515,1.791902652494854122617263521708
516,1.792293307767904147958345529287
517,1.792683207207272716091841362972
518,1.793072353737256808089836807072
519,1.793460750265246454242929842398
520,1.793848399681855741282863989649
521,1.794235304861050609386022392910
522,1.794621468660277714978713615936
523,1.795006893920590796322193488660
