Eigenstate,Potential Energy
1,0.500000000027057120038675530174471429
2,0.64623093782772931818544726967353111
3,0.73633761022376653435578554173041150
4,0.79966527889481965553207387907808828
5,0.8480465771574700780060532336059321
6,0.8870659997666713399898357575345691
7,0.9197208281607283049632956849157956
8,0.9477838487166616255916487742744857
9,0.9723835604407975294099181043221298
10,0.9942802174817400461413430960187938
11,1.0140093899805516191865750497083319
12,1.0319621732418804038541422898203486
13,1.0484326973315497064950825438117122
14,1.0636476599327181548082668392339262
15,1.0777854421600637631273876920893855
16,1.090988913430228549550407294740924
17,1.103374264923322679155905905975737
18,1.115037260589123885392564412250585
19,1.126057760251055126379824636642909
20,1.136503057240121100173087720077810
21,1.146430384476605504742093354024811
22,1.155888825628811250032403917757208
23,1.164920793049585184563938850317601
24,1.173563185176740317374738167972845
25,1.181848303328982264214144107927508
26,1.189804585513497045473385513036703
27,1.197457199388526962755881924394931
28,1.204828525622410472254146169933196
29,1.211938555095534151850948206051114
30,1.218805217742157289736421794181042
31,1.225444656683131122373284120569982
32,1.231871458222635165005126978430613
33,1.238098845972405273843119545012806
34,1.244138845616381812972285702608994
35,1.250002425489511233377196239401387
36,1.255699617110955492992806920727340
37,1.261239619007879198220664352102223
38,1.266630886535565604254988271868069
39,1.271881209901763962084414564707046
40,1.276997782207349916523355093138295
41,1.281987258998630385934178717114583
42,1.286855810571631752819926354860790
43,1.291609168062223849571233416078301
44,1.296252664187838208164349148304417
45,1.300791269368969473625029177074003
46,1.305229623845512598492460216041558
47,1.309572066309511823196981871265792
48,1.313822659498311083026772203903332
49,1.317985213127432938470291920832179
50,1.32206330448839041207495325982118
51,1.32606029699116915249588741337642
52,1.32997935689277213211425925097899
53,1.33382346842076896606281002951094
54,1.33759544747323080904378852604467
55,1.34129795405295629381563708026904
56,1.34493350357381940510228593825845
57,1.34850447715987121756212161130797
58,1.35201313104303024016474187402021
59,1.35546160515244216205005645315030
60,1.35885193097756528724353444609381
61,1.36218603877747371809803140779666
62,1.36546576420056934222025288588969
63,1.36869285437165178862026303401548
64,1.37186897349698303890116962681779
65,1.37499570803244853933401681504463
66,1.37807457145506932060938625150294
67,1.38110700867385734073195204294466
68,1.38409440011225010571612387004080
69,1.38703806549104795201450556590379
70,1.38993926733784910634718062224754
71,1.39279921424637893486905260110768
72,1.39561906390681155123279128398014
73,1.39839992592612894670173197323161
74,1.40114286445574395691442668512496
75,1.40384890064198227879969970337282
76,1.40651901491356919438591792923333
77,1.40915414911896425983020159675668
78,1.41175520852522141981315653982433
79,1.41432306368900518745255671853173
80,1.41685855220945540424498367720294
81,1.41936248037174375306788186418935
82,1.42183562468940374672100840159031
83,1.42427873335282718069658841970980
84,1.42669252759069574715140662015787
85,1.42907770295055723088037617253716
86,1.43143493050423984270180495345934
87,1.43376485798334077486474884084246
88,1.43606811084960168535310773694685
89,1.43834529330460031579963580336629
90,1.44059698924284423099376978256820
91,1.44282376315203121591647138726302
92,1.44502616096395256869615059830043
93,1.44720471085925327282411035241874
94,1.44935992402902010322983680097352
95,1.45149229539594756678745971266480
96,1.45360230429762975570824508482097
97,1.45569041513434185016443346677207
98,1.45775707798350213219493915693983
99,1.45980272918285190075439787238838
100,1.46182779188424433735088675104444
101,1.46383267657980406756322056321739
102,1.46581778160209358900762102982774
103,1.46778349359981482271064630047555
104,1.46973018799046678013495904940104
105,1.47165822939128726434745457379410
106,1.47356797202971575957568415127261
107,1.47545976013453658144304995575464
108,1.47733392830878212061882615556271
109,1.47919080188540741908497863668514
110,1.48103069726668489809661824705755
111,1.48285392224820219571443637407512
112,1.48466077632829663815400958275515
113,1.48645155100370433340274168027572
114,1.48822653005215311779892480127250
115,1.48998598980258813776479216983320
116,1.49173019939367051723723550710391
117,1.49345942102115784833306970591510
118,1.49517391017473421168020969442247
119,1.49687391586482371912976659105564
120,1.49855968083989572932913737306853
121,1.50023144179473161939192996403277
122,1.50188942957010408276774399012808
123,1.50353386934428773048288474948172
124,1.50516498081680209311438305518457
125,1.50678297838475855459662700171678
126,1.50838807131216755166233728912114
127,1.50998046389254179483319816600488
128,1.51156035560510867968563608430501
129,1.51312794126493298387905515703764
130,1.51468341116723256356663345261879
131,1.51622695122615435869069479072544
132,1.51775874310826303946386636629936
133,1.51927896436098284475326612055961
134,1.52078778853622188712616462992364
135,1.52228538530939009097304506739876
136,1.52377192059401824259358628367612
137,1.52524755665217232318758891249203
138,1.52671245220084368370221791899140
139,1.52816676251449351458137136240120
140,1.52961063952391461749460497840391
141,1.53104423191156892863323569760856
142,1.53246768520355116989411382209441
143,1.53388114185832035410217991734641
144,1.53528474135233369078614224796106
145,1.53667862026271325126225398115916
146,1.53806291234706788303051544022373
147,1.53943774862058466052145097394151
148,1.54080325743050520119828858579045
149,1.54215956452808864794520671559514
150,1.54350679313816495859501288442392
151,1.54484506402637441682589502932031
152,1.54617449556418366357220340859096
153,1.54749520379176719861764688436663
154,1.54880730247883825158715803265457
155,1.55011090318350725830401844245014
156,1.55140611530924580884881953516580
157,1.55269304616002711389658213041331
158,1.55397180099371480740610186780977
159,1.5552424830737637584675586501074
160,1.5565051937192992298186070437504
161,1.5577600323536328791205217799035
162,1.5590070965512750640663908455041
163,1.5602464820834983045911269636238
164,1.5614782829625065387489945099953
165,1.5627025914842587724468302485561
166,1.5639194982699976385921950556612
167,1.5651290923065300979465505917530
168,1.5663314609853029705675385760824
169,1.5675266901403183599014362237570
170,1.5687148640849287126122139212834
171,1.5698960656475517085783346652479
172,1.5710703762063428476859294057210
173,1.5722378757228611357195158690070
174,1.5733986427747637128348600720314
175,1.5745527545875634095174847292396
176,1.5757002870654789363500933945895
177,1.5768413148214109680969016791599
178,1.5779759112060732764715373728687
179,1.5791041483363053565047607420599
180,1.5802260971225974928813203804727
181,1.5813418272958509148025435071780
182,1.5824514074334007347303587746390
183,1.5835549049843247202570158144338
184,1.5846523862940621406068489114647
185,1.5857439166283644958636648524230
186,1.5868295601965990975130202684749
187,1.5879093801744293007670911532694
188,1.5889834387258868249562458774529
189,1.5900517970248598930449431140405
190,1.5911145152760128413162110700793
191,1.5921716527351564217428945020402
192,1.5932232677290851792142821182005
193,1.5942694176749002074310264916405
194,1.5953101590988306242154863696223
195,1.5963455476545716985599779763058
196,1.5973756381411533212762066345440
197,1.5984004845203531945296679308865
198,1.5994201399336689022005918313952
199,1.6004346567188616948876556563479
200,1.6014440864260859297157956128988
201,1.6024484798336151413275129361664
202,1.6034478869631781201696859033839
203,1.6044423570949156527582324338743
204,1.6054319387819695387829185424922
205,1.6064166798647138503646900670161
206,1.6073966274846414521632030743604
207,1.6083718280979116529605016075644
208,1.6093423274885732101260721467021
209,1.6103081707814684297914565149529
210,1.6112694024548298583340751443042
211,1.6122260663525769241271751344984
212,1.6131782056963227566786743503181
213,1.6141258630970955610474664271421
214,1.6150690805667895232212035583030
215,1.6160078995293444526810213993187
216,1.6169423608316681166041622096493
217,1.6178725047543052247406673721812
218,1.6187983710218620374075804590592
219,1.6197199988131898695301829430568
220,1.6206374267713399988515555961142
221,1.6215506930132878805935163875252
222,1.6224598351394438659278037453628
223,1.6233648902429439850817428516237
224,1.6242658949187358543696685284691
225,1.6251628852724622636856718757845
226,1.6260558969291459823912650999384
227,1.6269449650416844264372864809258
228,1.6278301242991559969121782855631
229,1.6287114089349452421525733538668
230,1.6295888527346915296453271348346
231,1.6304624890440630169761616767363
232,1.6313323507763663307301970714276
233,1.6321984704199869388332297092998
234,1.6330608800456763623840528206687
235,1.6339196113136793980618839783253
236,1.6347746954807110498611325096926
237,1.6356261634067867902643766531054
238,1.6364740455619078818478101129761
239,1.6373183720326071948822441217273
240,1.6381591725283576743291211978802
241,1.6389964763878477375621004453587
242,1.6398303125851264587459512606220
243,1.6406607097356225706271738044729
244,1.6414876961020389719531187022933
245,1.6423112996001271136109645181713
246,1.6431315478043437820344133897364
247,1.6439484679533916616435391663729
248,1.6447620869556512568517832452482
249,1.6455724313944991421353634883235
250,1.6463795275335229242652343273125
251,1.6471834013216308161082272322278
252,1.6479840783980586198914816829236
253,1.6487815840972791915280602099084
254,1.6495759434538140422550632259189
255,1.6503671812069509570081082328579
256,1.6511553218053677142933755627045
257,1.6519403894116682982959087938358
258,1.6527224079068280472773937208823
259,1.6535014008945545411081510039999
260,1.6542773917055646136319498191104
261,1.6550504034017778029156978088260
262,1.6558204587804309641096161261382
263,1.6565875803781128947995778804778
264,1.6573517904747244230034288343881
265,1.6581131110973624823382212653017
266,1.6588715640241303413894766165794
267,1.6596271707878771998137726976426
268,1.6603799526798671841725053456524
269,1.6611299307533820126947855834370
270,1.6618771258272530523928055240521
271,1.6626215584893320517646929185304
272,1.6633632490998945279277551083809
273,1.6641022177949832505750129839223
274,1.6648384844896890310510378678475
275,1.6655720688813726914048037726004
276,1.6663029904528264910503877802299
277,1.6670312684753824943272549292974
278,1.6677569220119596328861803431353
279,1.6684799699200609653471515320660
280,1.6692004308547132270769970780902
281,1.6699183232713565588919991342643
282,1.6706336654286819109354000256672
283,1.6713464753914193341582735974923
284,1.6720567710330743159206325095529
285,1.6727645700386189669556929210251
286,1.6734698899071340844238304841351
287,1.6741727479544071503298798487476
288,1.6748731613154826670613560584438
289,1.6755711469471694780936018318084
290,1.6762667216305058063713125332298
291,1.6769599019731798512885154374416
292,1.6776507044119088291553464370240
293,1.6783391452147803629081642646637
294,1.6790252404835512579596346416557
295,1.6797090061559057513152494891216
296,1.6803904580076808194983756712134
297,1.6810696116550484769905283147155
298,1.6817464825566643819199139438939
299,1.6824210860157795518353831900370
300,1.6830934371823169401510719923043
301,1.6837635510549132846785299042202
302,1.6844314424829283211585176737497
303,1.6850971261684185349003539415936
304,1.6857606166680790280376765869196
305,1.6864219283951549309061207020336
306,1.6870810756213216207418665438500
307,1.6877380724785309296538256901505
308,1.6883929329608308202970086142114
309,1.6890456709261546185119639287420
310,1.6896963000980801380755860729327
311,1.6903448340675622924656364933904
312,1.6909912862946367067707177660946
313,1.6916356701100957224935522046023
314,1.6922779987171385995207779073881
315,1.6929182851929952349013980124097
316,1.6935565424905247740755335419212
317,1.6941927834397866531574924429109
318,1.6948270207495894235179016645779
319,1.6954592670090145002262584658022
320,1.6960895346889148356114728960252
321,1.6967178361433924368744718934517
322,1.6973441836112508421831763457901
323,1.6979685892174260692886479379264
324,1.6985910649743950138016463731716
325,1.6992116227835630591100673809670
326,1.6998302744366291351634439402929
327,1.7004470316169310468795847128767
328,1.7010619059007682613677881390701
329,1.7016749087587071288267095937548
330,1.7022860515568649687823761364497
331,1.7028953455581744602425446437676
332,1.7035028019236293969908572020880
333,1.7041084317135121865580776560229
334,1.7047122458886012768756443629706
335,1.7053142553113628255258885178553
336,1.7059144707471226696223199320832
337,1.7065129028652214685477430729171
338,1.7071095622401540783838694015960
339,1.7077044593526892225213044127029
340,1.7082976045909755497717973320818
341,1.7088890082516297935422886113789
342,1.7094786805408095292020160539642
343,1.7100666315752701674133592529841
344,1.7106528713834061771155695903362
345,1.7112374099062783574772589502567
346,1.7118202569986246335945727690107
347,1.7124014224298579412751962602922
348,1.7129809158850480126143226835420
349,1.7135587469658906072692420103121
350,1.7141349251916617317548787195965
351,1.7147094600001589343464733800739
352,1.7152823607486293579365740699047
353,1.7158536367146838352076236626960
354,1.7164232970971984405784612007934
355,1.7169913510172038641922556286833
356,1.7175578075187608177170222077795
357,1.7181226755698247109874394569895
358,1.7186859640630988434780685258928
359,1.7192476818168718557373501012389
360,1.7198078375758483786916543894825
361,1.7203664400119646256789700157953
362,1.7209234977251954088034079161929
363,1.7214790192443471752144173344701
364,1.7220330130278420872967844443819
365,1.7225854874644913831300692553005
366,1.7231364508742568948795848056365
367,1.7236859115090036171215339691539
368,1.7242338775532401138247829405002
369,1.7247803571248513965276574229295
370,1.7253253582758199868783685028645
371,1.7258688889929380168427101398795
372,1.7264109571985093230517752227333
373,1.7269515707510415020003157470457
374,1.7274907374459322345691287028073
375,1.7280284650161405714365286805411
376,1.7285647611328546355889526691478
377,1.7290996334061475311368976805758
378,1.7296330893856246258420033363703
379,1.7301651365610640471525486142223
380,1.7306957823630471485072842020738
381,1.7312250341635818213383181084861
382,1.7317528992767157709386842238187
383,1.7322793849591444308508517368581
384,1.7328044984108084794725720387634
385,1.7333282467754845801292157871456
386,1.7338506371413700032606307176797
387,1.7343716765416568800520608583528
388,1.7348913719551000243021542628970
389,1.7354097303065789972056289419881
390,1.7359267584676516041498189655334
391,1.7364424632570991404569104714100
392,1.7369568514414669944403518713876
393,1.7374699297355980812526178720790
394,1.7379817048031576886118352477749
395,1.7384921832571525912700508897943
396,1.7390013716604440850806438321246
397,1.7395092765262545705627082211833
398,1.7400159043186676940863134252870
399,1.7405212614531206124594393450694
400,1.7410253542968926808634823286633
401,1.7415281891695866130462109743565
402,1.7420297723436028589782073865770
403,1.7425301100446100207014073168318
404,1.7430292084520091994488407002097
405,1.7435270736993897394698468739946
406,1.7440237118749824775843946106375
407,1.7445191290221076151758701103054
408,1.7450133311396147158051745305819
409,1.7455063241823176895125482935956
410,1.7459981140614272782747292931459
411,1.7464887066449753026240831665940
412,1.7469781077582342520088559613618
413,1.7474663231841332979428460674093
414,1.7479533586636671537797580793868
415,1.7484392198963020650639236540528
416,1.7489239125403753600799071877127
417,1.7494074422134914090773748568197
418,1.7498898144929111553968892400768
419,1.7503710349159394969987544824037
420,1.7508511089803055003053714529067
421,1.7513300421445393985319284055841
422,1.7518078398283456560967823407801
423,1.7522845074129699352416564467361
424,1.7527600502415635785768463856997
425,1.7532344736195419868997940745529
426,1.7537077828149404991177096717934
427,1.7541799830587652588927879400841
428,1.7546510795453390816871987854404
429,1.7551210774326462345840565405485
430,1.7555899818426689909791557620615
431,1.7560577978617234637856488122714
432,1.7565245305407918666546468242869
433,1.7569901848958465410960366694944
434,1.7574547659081768474248970489725
435,1.7579182785247067431944583758444
436,1.7583807276583109500937719889070
437,1.7588421181881278706654723790018
438,1.7593024549598682368951273920991
439,1.7597617427861201719623340095915
440,1.7602199864466517363529416713091
441,1.7606771906887081181705923873081
442,1.7611333602273070312794775123218
443,1.7615884997455319689583343388391
444,1.7620426138948179324213162504406
445,1.7624957072952389648489089275673
446,1.7629477845357885152620690498167
447,1.7633988501746598013914640119891
448,1.7638489087395193897272084194506
449,1.7642979647277818332363849090018
450,1.7647460226068775191722566554206
451,1.7651930868145212300521871027514
452,1.7656391617589742591342130222169
453,1.7660842518193058234464222240680
454,1.7665283613456501632989882576530
455,1.7669714946594629521333388525434
456,1.7674136560537723136879332905561
457,1.7678548497934291421685973703888
458,1.7682950801153531213006475849820
459,1.7687343512287769561677652089063
460,1.7691726673154884601606689288565
461,1.7696100325300683467401935025308
462,1.7700464510001269390450817001171
463,1.7704819268265384010944688668506
464,1.7709164640836706514704690927564
465,1.7713500668196149281952351967943
466,1.7717827390564121354780050933022
467,1.7722144847902752528274639210345
468,1.7726453079918128221480275451261
469,1.7730752126062459894957982168245
470,1.7735042025536266260123084820074
471,1.7739322817290507951209832752875
472,1.7743594540028718635754933635379
473,1.7747857232209086072401653382338
474,1.7752110932046558155724546435705
475,1.7756355677514863175400066712490
476,1.7760591506348569427534186097344
477,1.7764818456045087507876001807164
478,1.7769036563866662046559442710520
479,1.7773245866842341777962318941593
480,1.7777446401769931891245691688447
481,1.7781638205217914170061364299728
482,1.7785821313527370609033061308794
483,1.7789995762813864306722492322770
484,1.7794161588969305832338560588067
485,1.7798318827663819834690320775059
486,1.7802467514347557741006252557115
487,1.7806607684252525033171178543101
488,1.7810739372394369065926262482528
489,1.7814862613574159707739608846703
490,1.7818977442380141434463908559621
491,1.7823083893189478217476010466457
492,1.7827182000169977086994170679487
493,1.7831271797281790119486880995969
494,1.7835353318279105788361431188897
495,1.7839426596711811601669061717364
496,1.7843491665927160469796676353485
497,1.7847548559071397657075279478704
498,1.7851597309091387768560502262614
499,1.7855637948736216743883696088596
500,1.785967051055879016154981292821
501,1.786369502691738531245239262365
502,1.786771152997723159272864995128
503,1.787172005171203389553390375215
504,1.787572062390551743835857128915
505,1.787971327815292249879405090906
506,1.788369804586250635780566158681
507,1.788767495825703092893894259958
508,1.789164404637523247119157332337
509,1.789560534107325569252938129898
510,1.789955887302611277446981992813
511,1.790350467272909962654071831869
512,1.790744277049920837058807518158
513,1.791137319647652221030810329740
514,1.791529598062559944866390026069
515,1.791921115273685039415977115628
516,1.792311874242788925791208672629
517,1.792701877914487178742635394578
518,1.793091129216383648950274488221
519,1.793479631059201726026757845090
520,1.793867386336915599092710907262
521,1.794254397926878310010542803637
522,1.794640668689950875335573382643
523,1.795026201470628913999690086957
