Eigenstate,Potential Energy
1,0.500000000106255508464927779032491443
2,0.64623093834469730908690662854852136
3,0.73633761174232825661695159964762359
4,0.79966528205783875867509871348240474
5,0.8480465826365291897947263720765739
6,0.8870660082451463656278531784724049
7,0.9197208403275575882283750524284432
8,0.9477838652637525066861064319928199
9,0.9723835820618250555635248951411232
10,0.9942802448715415625884654271612174
11,1.0140094238348018792283128625440067
12,1.0319622142569096329691224675036216
13,1.0484327462042394969808280826916398
14,1.0636477173604421578900661320537027
15,1.0777855088406554124889829033750037
16,1.090988990061965770724247981597703
17,1.103374352204923654146233720332925
18,1.115037359219750237450801975241057
19,1.126057870930320222513057388107752
20,1.136503180668101970262189627233211
21,1.146430521353857373162156625064674
22,1.155888976656383992616375464468924
23,1.164920958929041230955709682314166
24,1.173563366610173657346801389889799
25,1.181848501019038311036902612540090
26,1.189804800163393175104075323526826
27,1.197457431702073594034730315715923
28,1.204828776304032586612013078676187
29,1.211938824850293175286396598051779
30,1.218805507275773277708606991938756
31,1.225444966702005201611503551994523
32,1.231871789433872196317941500976465
33,1.238099199083836707701557449549869
34,1.244139221336588715566971381640646
35,1.250002824527847465455796048837527
36,1.255700040177571027396117308076617
37,1.261240066813743564890861329606717
38,1.266631359792491453763484066698800
39,1.271881709322430740550996266019105
40,1.276998308505327646271773616703591
41,1.281987812888403547427072892076832
42,1.286856392768623264395852107179453
43,1.291609779282819142312895182664888
44,1.296253305149409393894274563887057
45,1.300791940789899604580282337095426
46,1.305230326445220017694573406554952
47,1.309572800808474604923868975772499
48,1.313823426618091563123792178082129
49,1.317986013590702334518116744269095
50,1.32206413901895353367141124704955
51,1.32606116631398920211463085618337
52,1.32998026173399559718023206640448
53,1.33382440950775060303805700263723
54,1.33759642553455872045094824617182
55,1.34129896981847709924349024433367
56,1.34493455777466350734069902412794
57,1.34850557052847816510467893728800
58,1.35201426431317418739860137294119
59,1.35546277905925742852452250501120
60,1.35885314625757201747408325718560
61,1.36218729616860364342115699499622
62,1.36546706444219164626800663152276
63,1.36869419820459907803196543575979
64,1.37187036166357742093461059463691
65,1.37499714127652780808004469709225
66,1.37807605052201325355214456198956
67,1.38110853431061410743304673954832
68,1.38409597306736279043484091682112
69,1.38703968651468119210838768165480
70,1.38994093718181584832719842144050
71,1.39280093366416731001322387016795
72,1.39562083365361187268935129106802
73,1.39840174675886083004033359772583
74,1.40114473713308356610948736959946
75,1.40385082592438969965561330022882
76,1.40652099356331593743818323175897
77,1.40915618190016089478101008821010
78,1.41175729620384534358366787796074
79,1.41432520703292852795762138323690
80,1.41686075198847306201903252400783
81,1.41936473735760158289405225022475
82,1.42183793965582688143825695127639
83,1.42428110707554849938229288546420
84,1.42669496084748448989982338815218
85,1.42908019652124776242000838715749
86,1.43143748517076056711743099442440
87,1.43376747452974320371293596729596
88,1.43607079006208966148272742856677
89,1.43834803597155939521213508209199
90,1.44059979615487122510098792569366
91,1.44282663510196389657759200909656
92,1.44502909874689953843835144915654
93,1.44720771527262400267594402658553
94,1.44936299587255514061993985165083
95,1.45149543547174891598572608569083
96,1.45360551341019143331101938807470
97,1.45569369409058061815034987154127
98,1.45776042759278841110276801575958
99,1.45980615025704086556028399977516
100,1.46183128523770719864751014616149
101,1.46383624302945954067010275959703
102,1.46582142196743955366782799008611
103,1.46778720870296017605598930814535
104,1.46973397865616348562936678722055
105,1.47166209644696259944534401779167
106,1.47357191630550476486012842631110
107,1.47546378246331471403714412017704
108,1.47733802952619811469212447135966
109,1.47919498282991635630631653922413
110,1.48103495877958149091397884158907
111,1.48285826517365428637266383446198
112,1.48466520151337891639176461014555
113,1.48645605929843227580077649089080
114,1.48823112230951715178348002015048
115,1.48999066687858803330145334195032
116,1.49173496214735000928316031452194
117,1.49346427031463949314833214246560
118,1.49517884687325448013225515546422
119,1.49687894083676833015876738452665
120,1.49856479495683522677675139655971
121,1.50023664593145719543043536408619
122,1.50189472460466365120221867510890
123,1.50353925615802225323502019929385
124,1.50517046029438216323293065837682
125,1.50678855141422123917679371304782
126,1.50839373878495349809404428110756
127,1.50998622670353260383614970507729
128,1.51156621465266454862836325885017
129,1.51313389745093062391827509720472
130,1.51468946539710339418337151006899
131,1.51623310440892298324028662378405
132,1.51776499615658600539868048873342
133,1.51928531819118769221801626864378
134,1.52079424406834648966934554810623
135,1.52229194346722229216070386374565
136,1.52377858230513579235544213612079
137,1.52525432284798311777082930631568
138,1.52671932381662631315304196844134
139,1.52817374048943812172049987602943
140,1.52961772480116407240014816815857
141,1.53105142543826032269112341802344
142,1.53247498793085763352513129652625
143,1.53388855474149320232339653632736
144,1.53529226535074490081436472294861
145,1.53668625633989827641753799759446
146,1.53807066147076880724933354039882
147,1.53944561176279369784125824620547
148,1.54081123556750854462777292916383
149,1.54216765864051067218920844856635
150,1.54351500421101278115653046361998
151,1.54485339304908282206452509471565
152,1.54618294353066039435349091401345
153,1.54750377170043862024606695177340
154,1.54881599133269539277286478387139
155,1.55011971399015223397318384230675
156,1.55141504908093862966752375274555
157,1.55270210391373288743845215153506
158,1.55398098375115133595685016015176
159,1.5552517918614495385217971578912
160,1.5565146295686018583886896595257
161,1.5577695963008178720419625217121
162,1.5590167896375550915508354437506
163,1.5602563053550828493438849098353
164,1.5614882374706519820377308013261
165,1.5627126782853189135762749007391
166,1.5639297184254746533102790533366
167,1.5651394468831259413788878311856
168,1.5663419510549712303500127178214
169,1.5675373167803165652541506164068
170,1.5687256283778711051732401667737
171,1.5699069686814624808917335318075
172,1.5710814190747098553162334049525
173,1.5722490595246900890427340109101
174,1.5734099686146328546374404432544
175,1.5745642235756786846144178406084
176,1.5757119003177296595169974792325
177,1.5768530734594259966941077725733
178,1.5779878163572776942237292511426
179,1.5791162011339776749864946814383
180,1.5802382987059273773470043138100
181,1.5813541788099974410879889354679
182,1.5824639100295511840451811769929
183,1.5835675598197539187789037255491
184,1.5846651945321923508828897167321
185,1.5857568794388258671201038895197
186,1.5868426787552906820698827002213
187,1.5879226556635806438554404623760
188,1.5889968723341201353344030965462
189,1.5900653899472528019124993945790
190,1.5911282687141617571281846568867
191,1.5921855678972404886322385718498
192,1.5932373458299308468374987032004
193,1.5942836599360464201610553808711
194,1.5953245667485946377160740941811
195,1.5963601219281155318894351713417
196,1.5973903802805508527816048910555
197,1.5984153957746579099101700399862
198,1.5994352215589823032357620241651
199,1.6004499099784023774482148839483
200,1.6014595125902593397955048493116
201,1.6024640801800840179593998448422
202,1.6034636627769336342177866381472
203,1.6044583096683492507022752958818
204,1.6054480694149455007465195738115
205,1.6064329898646425717688701270437
206,1.6074131181665534585237977678943
207,1.6083885007845323574847604401855
208,1.6093591835103984239038227327112
209,1.6103252114768406345194129053864
210,1.6112866291700152516553604074151
211,1.6122434804418432478164346786070
212,1.6131958085220179180524425130650
213,1.6141436560297270581326213359378
214,1.6150870649851046843682500503853
215,1.6160260768204115014677755979266
216,1.6169607323909580730351833590308
217,1.6178910719857746539115343282455
218,1.6188171353380366569683014415840
219,1.6197389616352490274525918355973
220,1.6206565895292020331759098326824
221,1.6215700571456963730054887372807
222,1.6224794020940548011942755955580
223,1.6233846614764138285561034393482
224,1.6242858718968105599602876881119
225,1.6251830694700672248699126236646
226,1.6260762898304769390481122879380
227,1.6269655681402993404649831176431
228,1.6278509390980679097966160703764
229,1.6287324369467161278523644082777
230,1.6296100954815271563642951052990
231,1.6304839480579088316032172293754
232,1.6313540275990043799383867000320
233,1.6322203666031338410453686621064
234,1.6330829971510823450334855337246
235,1.6339419509132284147994362957487
236,1.6347972591565219925880753639602
237,1.6356489527513158111033156467290
238,1.6364970621780518403993140421811
239,1.6373416175338082463555297050030
240,1.6381826485387090143811025502141
241,1.6390201845422005199270488125932
242,1.6398542545291979019926936138779
243,1.6406848871261052706396927611159
244,1.6415121106067114369932820660624
245,1.6423359528979655390902627317752
246,1.6431564415856350823962885327537
247,1.6439736039198477770334140123191
248,1.6447874668205247525376052023700
249,1.6455980568827001189290945081050
250,1.6464054003817372584898753985332
251,1.6472095232784397479554089049611
252,1.6480104512240597093176371211490
253,1.6488082095652086611501489686679
254,1.6496028233486705270228610635459
255,1.6503943173261206807520065053308
256,1.6511827159587511135761514592162
257,1.6519680434218081143320578181050
258,1.6527503236090389070240078135270
259,1.6535295801370540489796436597487
260,1.6543058363496059756457840606297
261,1.6550791153217840054362179858777
262,1.6558494398641305297270118182462
263,1.6566168325266772382539413787064
264,1.6573813156029068304486575595118
265,1.6581429111336387376278293434860
266,1.6589016409108410234657046166036
267,1.6596575264813716756849443297318
268,1.6604105891506493223770319428037
269,1.6611608499862576425715022214820
270,1.6619083298214791949052247383655
271,1.6626530492587679480652142239447
272,1.6633950286731544922935657631872
273,1.6641342882155913748023378165751
274,1.6648708478162357678579403284656
275,1.6656047271876733448655430927359
276,1.6663359458280816425671207955976
277,1.6670645230243403931369146852676
278,1.6677904778550805806005747988739
279,1.6685138291936837245377068464501
280,1.6692345957112234844365462890626
281,1.6699527958793574740384229598467
282,1.6706684479731667824649179280008
283,1.6713815700739464151105831237187
284,1.6720921800719438113822575133595
285,1.6728002956690522471065471769736
286,1.6735059343814551469174206756812
287,1.6742091135422263665003785494062
288,1.6749098503038828470619727617278
289,1.6756081616408942906963629433480
290,1.6763040643521505897953699197106
291,1.6769975750633848520760534999695
292,1.6776887102295549067785729559833
293,1.6783774861371871984677222446803
294,1.6790639189066781060291186490923
295,1.6797480244945547746904736190956
296,1.6804298186957030473337575621276
297,1.6811093171455524275399228637541
298,1.6817865353222273918515338523312
299,1.6824614885486618548574455952504
300,1.6831341919946785384691748719389
301,1.6838046606790336576064654286089
302,1.6844729094714290160195658702872
303,1.6851389530944886861927843767105
304,1.6858028061257038516888859864944
305,1.6864644829993472413122642001890
306,1.6871239980083564191762806243955
307,1.6877813653061831135382026015340
308,1.6884365989086160637550414548764
309,1.6890897126955734755756523645667
310,1.6897407204128654208785915677824
311,1.6903896356739297777519240543143
312,1.6910364719615392250535207652849
313,1.6916812426294806852350929437875
314,1.6923239609042090207569880020710
315,1.6929646398864743048159011901517
316,1.6936032925529240431280245505820
317,1.6942399317576778864984214375399
318,1.6948745702338801865752073461343
319,1.6955072205952275375228614731699
320,1.6961378953374713060787757554894
321,1.6967666068398990701553705903170
322,1.6973933673667910816765913139366
323,1.6980181890688552689731497556457
324,1.6986410839846397571906330462677
325,1.6992620640419246700339142946345
326,1.6998811410590914514516709166932
327,1.7004983267464725294180635015999
328,1.7011136327076785124490001208135
329,1.7017270704409078951771946738008
330,1.7023386513402357061592926683888
331,1.7029483866968825380273163166226
332,1.7035562877004650227855375252848
333,1.7041623654402281323998452900133
334,1.7047666309062574903302244557049
335,1.7053690949906760106117150802850
336,1.7059697684888209242388867711132
337,1.7065686621004040668510851674475
338,1.7071657864306564883571949758348
339,1.7077611519914534508391518712813
340,1.7083547692024259079499153440308
341,1.7089466483920541813049049480419
342,1.7095367997987463329810479493871
343,1.7101252335719008739258665222292
344,1.7107119597729538040468848395855
345,1.7112969883764118054263610801965
346,1.7118803292708690656186526896508
347,1.7124619922600112986053390359573
348,1.7130419870636037774025430976175
349,1.7136203233184669255655343206197
350,1.7141970105794370123203207477885
351,1.7147720583203140413597686746424
352,1.7153454759347965181761680143507
353,1.7159172727374023828670838187639
354,1.7164874579643775255209967900602
355,1.7170560407745922521560138823290
356,1.7176230302504239137644685424678
357,1.7181884353986289403319076654696
358,1.7187522651512035267408313660371
359,1.7193145283662287186787950732938
360,1.7198752338287088395219457726265
361,1.7204343902513950061960663322626
362,1.7209920062756002188317018318406
363,1.7215480904720006231138268732074
364,1.7221026513414279727029321150651
365,1.7226556973156515315598136463359
366,1.7232072367581482973964660277391
367,1.7237572779648644419096839903347
368,1.7243058291649647602698646139777
369,1.7248528985215747662454057994351
370,1.7253984941325111500790636831533
371,1.7259426240310034564636048566783
372,1.7264852961864059432447433690647
373,1.7270265185048995918249600913491
374,1.7275662988301885821108572388474
375,1.7281046449441819280641672425007
376,1.7286415645676717346691953074048
377,1.7291770653609998702598404729212
378,1.7297111549247162264601356038763
379,1.7302438408002304105314229868821
380,1.7307751304704536319978179699860
381,1.7313050313604336642471620009270
382,1.7318335508379800046668103452251
383,1.7323606962142839135220970008208
384,1.7328864747445283009670084868405
385,1.7334108936284910892987051967024
386,1.7339339600111427151046898589866
387,1.7344556809832335268256004646638
388,1.7349760635818750208666958270045
389,1.7354951147911155974659953472396
390,1.7360128415425080321255340411977
391,1.7365292507156689864321228798887
392,1.7370443491388341737225270748077
393,1.7375581435894066603605128394759
394,1.7380706407944968912026989191532
395,1.7385818474314573038205152821847
396,1.7390917701284111902662843662205
397,1.7396004154647754444197945519456
398,1.7401077899717772114340541660952
399,1.7406139001329630136760440619107
400,1.7411187523847046619899761575475
401,1.7416223531166980103141655965173
402,1.7421247086724553082591755348920
403,1.7426258253497939820435357608314
404,1.7431257094013197468114585410134
405,1.7436243670349015260265825328000
406,1.7441218044141442974961583680142
407,1.7446180276588569936077296476759
408,1.7451130428455129701366802507820
409,1.7456068560077059162090288356729
410,1.7460994731366037317506056732559
411,1.7465909001813946446447190568659
412,1.7470811430497291627668727476053
413,1.7475702076081589529127833741270
414,1.7480580996825690838212022783080
415,1.7485448250586079310127591789435
416,1.7490303894821111872624658141414
417,1.7495147986595228418153380028002
418,1.7499980582583103066576279146584
419,1.7504801739073779838942954085111
420,1.7509611511974742721857288446200
421,1.7514409956815959809559343392386
422,1.7519197128753894510248065136380
423,1.7523973082575462353944423813022
424,1.7528737872701969720598864794369
425,1.7533491553192998469265055773606
426,1.7538234177750272730001543322522
427,1.7542965799721482904187868129554
428,1.7547686472104067216019532831369
429,1.7552396247548990151582677196321
430,1.7557095178364446625975376268899
431,1.7561783316519567141567510157978
432,1.7566460713648095666676608913143
433,1.7571127421051993855238142645130
434,1.7575783489705082836597312165179
435,1.7580428970256601070211125374849
436,1.7585063913034757541691594400518
437,1.7589688368050262189510006868539
438,1.7594302384999823667772822801885
439,1.7598906013269621552573210711577
440,1.7603499301938764008435773996329
441,1.7608082299782702828265498217030
442,1.7612655055276641808795074421104
443,1.7617217616598935275287599610745
444,1.7621770031634423297633699409387
445,1.7626312347977797264982678269153
446,1.7630844612936906435419672333117
447,1.7635366873536077538580740903038
448,1.7639879176519380012955974163998
449,1.7644381568353915696836494654843
450,1.7648874095233054925835630899240
451,1.7653356803079694511792252161293
452,1.7657829737549466476409476748532
453,1.7662292944033955446583976201409
454,1.7666746467663889094518940986210
455,1.7671190353312338372916640302497
456,1.7675624645597881045354674667718
457,1.7680049388887776018678241643065
458,1.7684464627301113006237906888051
459,1.7688870404711963252366088700118
460,1.7693266764752528354521442440031
461,1.7697653750816266316409332655074
462,1.7702031406061027622564115851709
463,1.7706399773412188056908804481201
464,1.7710758895565760585344443435966
465,1.7715108814991526727648585436323
466,1.7719449573936159492108648860375
467,1.7723781214426331473856627248166
468,1.7728103778271859100152983865363
469,1.7732417307068808648439984178051
470,1.7736721842202640175154025283801
471,1.7741017424851332954080538785406
472,1.7745304095988536364761003673506
473,1.7749581896386700742641386364641
474,1.7753850866620264273711237357054
475,1.7758111047068786245956028313394
476,1.7762362477920152924087018013886
477,1.7766605199173760551815711673509
478,1.7770839250643723463948818245410
479,1.7775064671962097474420094724193
480,1.7779281502582123811075491152893
481,1.7783489781781480485776058865728
482,1.7787689548665578225197646886971
483,1.7791880842170856259994327913100
484,1.7796063701068107730697045200739
485,1.7800238163965851106315653218384
486,1.7804404269313695159925043103404
487,1.7808562055405767758309883931745
488,1.7812711560384156276108800733814
489,1.7816852822242393840885914156699
490,1.7820985878828972049257952060892
491,1.7825110767850903593671929964403
492,1.7829227526877322871232247143089
493,1.7833336193343126611299534801705
494,1.7837436804552667850888086781805
495,1.7841529397683487679033296664276
496,1.7845614009790119802969438084315
497,1.7849690677807927518900088479713
498,1.7853759438557015391831047354468
499,1.7857820328746193601097559770645
500,1.786187338497701937759056816237
501,1.786591864374787625962851478029
502,1.786995614145816913856507607254
503,1.787398591441255335627711297638
504,1.787800799882528004322709007624
505,1.788202243082459010151737624434
506,1.788602924645721825183466970758
507,1.789002848169298994226716051854
508,1.789402017242951204562116651800
509,1.789800435449694440344682422768
510,1.790198106366291773225030428594
511,1.790595033563753543278421913701
512,1.790991220607850379602932578701
513,1.791386671059638253056584850698
514,1.791781388475996843504181577173
515,1.792175376410182232699346898287
516,1.792568638412392802620184067229
517,1.792961178030350118042718135800
518,1.793352998809897319409845010337
519,1.793744104295612587335446866413
520,1.794134498031441356251524948271
521,1.794524183561344936467563896594
522,1.794913164429970731005561519362
523,1.795301444183341443587617264365
