Eigenstate,Potential Energy
1,0.500000000572221374990694994963264528
2,0.64623094138634726772038131860706780
3,0.73633762067723797426282796330691485
4,0.79966530066911557208535864790003392
5,0.8480466148770119282501819778438423
6,0.8870660581380853536433321345711426
7,0.9197209119302186111373530763861475
8,0.9477839626524220085810290673726450
9,0.9723837093250066595782516035382366
10,0.9942804061066590676572428041412987
11,1.0140096231465533479015755837483255
12,1.0319624557564632605390868329254705
13,1.0484330340088881687471696127991149
14,1.0636480555935224099804765152097107
15,1.0777859016316263380883132462959079
16,1.090989441546588839109742194824237
17,1.103374866525508621704303662822978
18,1.115037940525445836926543372963501
19,1.126058523377436158483127000080719
20,1.136503908420453464145246199980836
21,1.146431328583126426098079848953674
22,1.155889867542493400088588378367386
23,1.164921937660538602879090225903671
24,1.173564437384623513126423402584654
25,1.181849668043420875915657345852079
26,1.189806067654508891313549158021955
27,1.197458803886952634153667042820436
28,1.204830257420348853356289066056691
29,1.211940419146782415476912046264557
30,1.218807219012655044263367116514439
31,1.225446800151408476861922975213124
32,1.231873748880264550181167500374790
33,1.238101288824456910441126504528581
34,1.244141445681882760716559165460932
35,1.250005187801907986600190411930739
36,1.255702546718580114806917372441137
37,1.261242720974419005903509486797296
38,1.266634165940536435289733151308829
39,1.271884671840987064022222346888559
40,1.277001431793432515186508351998114
41,1.281991101361449995973246531427574
42,1.286859850858824302675912088865969
43,1.291613411439675699779421567850534
44,1.296257115840182147909208763748974
45,1.300795934500084785703063852140558
46,1.305234507679029287509328062094555
47,1.309577174089319106032441592581683
48,1.313827996489070244441805023596762
49,1.317990784615094658277519172807989
50,1.32206911578071667360895162930810
51,1.32606635341825984525356537409682
52,1.32998566380759646442547624835711
53,1.33383003119970180653310797637040
54,1.33760227151659407831227565145189
55,1.34130504478556553091257519483542
56,1.34494086644553563539403716825574
57,1.34851211764615825195037210864116
58,1.35202105464551753788014478329806
59,1.35546981739949339205157672054970
60,1.35886043742485272592318605525937
61,1.36219484500855862369919428138170
62,1.36547487582748844911706424747993
63,1.36870227703551006737971058201766
64,1.37187871286855287086811048397920
65,1.37500576981277545734745646716019
66,1.37808496137608447037711024769875
67,1.38111773249899682037010896367299
68,1.38410546363708134400137667233532
69,1.38704947454390328900649734076591
70,1.38995102778046674321426101187403
71,1.39281133197455142300815276341772
72,1.39563154485104199410144348734092
73,1.39841277605229509119660897664335
74,1.40115608976577035462625284778497
75,1.40386250717452070106243734934535
76,1.40653300874468748871331967148805
77,1.40916853636284383910789014300410
78,1.41176999533486357948433016809868
79,1.41433825625694644990884382376816
80,1.41687415676849209370952120701281
81,1.41937850319566600844696226366912
82,1.42185207209373918419623821320914
83,1.42429561169559442224431338666733
84,1.42670984327316803570854003605025
85,1.42909546241803635753189632628489
86,1.43145314024684061604586040444049
87,1.43378352453678626762637126209398
88,1.43608724079602949836304059934899
89,1.43836489327338010464134513978433
90,1.44061706591140674594935833106966
91,1.44284432324670911132041765249264
92,1.44504721126083324343049558119159
93,1.44722625818504400947453187471687
94,1.44938197526192577936623919321538
95,1.45151485746656121794345685651654
96,1.45362538418983627591473835246076
97,1.45571401988623512235326256583492
98,1.45778121468831588742521347405180
99,1.45982740498990461204257155068768
100,1.46185301399989846090583964177252
101,1.46385845226843995144619212122093
102,1.46584411818709837666041782089121
103,1.46781039846458668643162582866947
104,1.46975766857943482743822047687736
105,1.47168629321094746821566580091807
106,1.47359662664968327193171336751321
107,1.47548901318861479771466895718094
108,1.47736378749604887206616566769400
109,1.47922127497131867861835190450681
110,1.48106179208419639462220503502564
111,1.48288564669890934163545876576150
112,1.48469313838359318452187289835686
113,1.48648455870596017736775007758062
114,1.48826019151591169746747217831842
115,1.49002031321578386033205431431872
116,1.49176519301886667734769372291328
117,1.49349509319680550503045372003769
118,1.49521026931645250406186779571849
119,1.49691097046670211292044672431932
120,1.49859743947581869905388118849928
121,1.50026991311972628366814435530715
122,1.50192862232171132346440645418891
123,1.50357379234395734011874291943171
124,1.50520564297131250891111114643303
125,1.50682438868766175207160667010026
126,1.50843023884525968555618228409906
127,1.51002339782736019053776996140933
128,1.51160406520445579418105043758780
129,1.51317243588442797152086328282868
130,1.51472870025689109890099163682357
131,1.51627304433199738584349570582733
132,1.51780564987395513555240998653856
133,1.51932669452950090323610379005709
134,1.52083635195155484606007456503896
135,1.52233479191827045079276787625530
136,1.52382218044768613830477916189783
137,1.52529867990817293678637060787765
138,1.52676444912485880421861764600669
139,1.52821964348220807542817792938408
140,1.52966441502291906380203159224623
141,1.53109891254329829098670558455289
142,1.53252328168526174541363990266988
143,1.53393766502510492110667993738458
144,1.53534220215917620943061016049272
145,1.53673702978658402952983245227324
146,1.53812228178906021535829703578965
147,1.53949808930809397514390417552001
148,1.54086458081945178206728231014905
149,1.54222188220518502785444110625616
150,1.54357011682322911192359792655927
151,1.54490940557468991319709734553496
152,1.54623986696890797769045634218354
153,1.54756161718638940668695163805906
154,1.54887477013968738104042652148746
155,1.55017943753231259515197624357835
156,1.55147572891575050582287206530812
157,1.55276375174465648276846048410071
158,1.55404361143030072047346719454379
159,1.5553154113923266272489410256764
160,1.5565792531088890735642510965123
161,1.5578352361652310418710154673222
162,1.5590834583007581867506777806283
163,1.5603240154546662081003915307401
164,1.5615570018101757251417286399578
165,1.5627825098374233044854762167228
166,1.5640006303350592127559907354342
167,1.5652114524705991830090294507463
168,1.5664150638195729428311413689373
169,1.5676115504035146273272397490401
170,1.5688009967268348834839800170865
171,1.5699834858126149260596305328576
172,1.5711590992373604797861028084137
173,1.5723279171647510808691889936596
174,1.5734900183784206545935892077157
175,1.5746454803138034300142798269190
176,1.5757943790890749769909935840998
177,1.5769367895352217080002489102015
178,1.5780727852252680841441875941905
179,1.5792024385026880585524376224638
180,1.5803258205090317952516522967945
181,1.5814430012107904072689139935118
182,1.5825540494255265082524452013799
183,1.5836590328472937296340070878596
184,1.5847580180713695516432941601349
185,1.5858510706183233672767123301117
186,1.5869382549574408632167574892103
187,1.5880196345295286381728540763578
188,1.5890952717691146197169632199558
189,1.5901652281260681404942621943966
190,1.5912295640866554599002563461975
191,1.5922883391940500943033055398614
192,1.5933416120683144842458385334464
193,1.5943894404258714547412089947285
194,1.5954318810984789679821525689836
195,1.5964689900517262659215149322117
196,1.5975008224030652666488404261272
197,1.5985274324393917690806767384886
198,1.5995488736341908147308033008302
199,1.6005651986642592351048781235141
200,1.6015764594260195279004336866229
201,1.6025827070514362501435773077009
202,1.6035839919235485252265845236991
203,1.6045803636916295489490588522525
204,1.6055718712859849499252806820067
205,1.6065585629324002206553341615436
206,1.6075404861662505000708931438477
207,1.6085176878462788518562321518449
208,1.6094902141680575458678376802435
209,1.6104581106771383842144898480066
210,1.6114214222819038797751327845660
211,1.6123801932661269725195037784859
212,1.6133344673012498519806859034246
213,1.6142842874583866207383226401365
214,1.6152296962200651479945268642710
215,1.6161707354917077102552956680730
216,1.6171074466128647826101665918360
217,1.6180398703682063679219136091440
218,1.6189680469982802849229589346381
219,1.6198920162100411580556155565556
220,1.6208118171871631095890789739913
221,1.6217274886001345724733584190841
222,1.6226390686161529624576866558283
223,1.6235465949088133379551811510033
224,1.6244501046676067024189879411453
225,1.6253496346072311307505000527689
226,1.6262452209767199137050657763171
227,1.6271368995683960520727296167227
228,1.6280247057266556344655657191214
229,1.6289086743565880112337877704429
230,1.6297888399324382499584079118335
231,1.6306652365059145021006301155134
232,1.6315378977143515735611606978772
233,1.6324068567887266145262373509909
234,1.6332721465615440533731159812073
235,1.6341337994745839761307269154967
236,1.6349918475865247355085291365108
237,1.6358463225804445530054328855241
238,1.6366972557712050501711421795694
239,1.6375446781127234151582597538649
240,1.6383886202051366980775858150137
241,1.6392291123018639304312135553631
242,1.6400661843165704170157344730450
243,1.6408998658300398069837730855647
244,1.6417301860969572969452652275751
245,1.6425571740526100983538410452717
246,1.6433808583195095474656012852621
247,1.6442012672139382064512552081425
248,1.6450184287524316171827320587406
249,1.6458323706581918788592367246648
250,1.6466431203674457660445877447028
251,1.6474507050357477574929434509399
252,1.6482551515442333925045539773560
253,1.6490564865058308032292220117049
254,1.6498547362714330248229670119592
255,1.6506499269360380890048773618510
256,1.6514420843448603050977125638058
257,1.6522312340994226452651035142228
258,1.6530174015636304254257930899678
259,1.6538006118698370693508631692029
260,1.6545808899249065806669484976888
261,1.6553582604162775477773766439858
262,1.6561327478180382112438558703164
263,1.6569043763970165630165518799538
264,1.6576731702188963852461837836772
265,1.6584391531543635743592608773374
266,1.6592023488852911298508777033678
267,1.6599627809109726538968020642685
268,1.6607204725544114822369757118870
269,1.6614754469686772921388403413133
270,1.6622277271433340153083394122455
271,1.6629773359109570131255842743978
272,1.6637242959537427826923184120930
273,1.6644686298102285910116761756643
274,1.6652103598821299202549630618163
275,1.6659495084413110527924518804878
276,1.6666860976368993715273213929826
277,1.6674201495025640718864161375789
278,1.6681516859639652453934075754409
279,1.6688807288464001214803505255502
280,1.6696072998826550163188439012828
281,1.6703314207210886077191893949420
282,1.6710531129339631498172283468474
283,1.6717723980260474685883212170614
284,1.6724892974435111711474082973644
285,1.6732038325831409508201210274682
286,1.6739160248019010516927246896783
287,1.6746258954268711385830826143084
288,1.6753334657655885110383363898779
289,1.6760387571168324207053458393367
290,1.6767417907818871586951111725033
291,1.6774425880763207861152175844112
292,1.6781411703423248289089355533623
293,1.6788375589616650228281355775102
294,1.6795317753692884474039141331152
295,1.6802238410676439813409977532549
296,1.6809137776417835236252302906463
297,1.6816016067752993089921489948942
298,1.6822873502671781569843882119653
299,1.6829710300496477628729268129798
300,1.6836526682071026069079918179283
301,1.6843322869962040674526628371368
302,1.6850099088672602847184053960103
303,1.6856855564869967301867482731584
304,1.6863592527628463523961560667165
305,1.6870310208688988680491707823115
306,1.6877008842736609612599163117723
307,1.6883688667697931451854079968247
308,1.6890349925060173539799416521496
309,1.6896992860213981732522288630193
310,1.6903617722822276111462371261412
311,1.6910224767217721955763971888552
312,1.6916814252831640113942819783924
313,1.6923386444657538466348478982758
314,1.6929941613752820251936443815623
315,1.6936480037782619859217941413786
316,1.6943002001610214188869904202894
317,1.6949507797938962431346814429937
318,1.6955997728011424911580693174562
319,1.6962472102371938082721638075020
320,1.6968931241699763195832684213205
321,1.6975375477720897645828034865558
322,1.6981805154207633013960248553599
323,1.6988220628076255840550034275341
324,1.6994622270594673614715438579404
325,1.7001010468713436482191885227176
326,1.7007385626535519906989916604968
327,1.7013748166942529119147323902233
328,1.7020098533397559790238711585753
329,1.7026437191948110583946161873887
330,1.7032764633455983736338715424803
331,1.7039081376085437406596671603694
332,1.7045387968085912550291201148653
333,1.7051684990911662982183571091894
334,1.7057973062727761797931589405498
335,1.7064252842360591947748999202017
336,1.7070525033761142410789266525389
337,1.7076790391061915143615105060127
338,1.7083049724323264577432617549905
339,1.7089303906083228861870206238685
340,1.7095553878847359585726685907363
341,1.7101800663682394913922841817452
342,1.7108045370111560126459642063955
343,1.7114289207551283435199125129187
344,1.7120533498581575428877600912095
345,1.7126779694408198199139663316504
346,1.7133029392957916992650508886594
347,1.7139284360154025080703043813714
348,1.7145546555054837685534977895381
349,1.7151818159712890770197205669373
350,1.7158101614840154780350095451869
351,1.7164399662663295998712162849360
352,1.7170715398748463728436384503868
353,1.7177052335103824522349102175525
354,1.7183414477582439951824004093176
355,1.7189806421584078895245579988044
356,1.7196233471404262433586543634259
357,1.7202701790470044618263742671115
358,1.7209218592389687042488629513359
359,1.7215792386622680711249916233901
360,1.7222433298271625145562469820824
361,1.7229153490014525228885671963068
362,1.7235967727198677245766098632034
363,1.7242894147424383014939380988144
364,1.7249955328479731560174812631629
365,1.7257179802118511103929967224107
366,1.7264604252495237361801751066580
367,1.7272276799437183204570148850132
368,1.7280262064318074975359333807868
369,1.7288649293203370382851054772116
370,1.7297565998592484707790646278935
371,1.7307202202897621081118723301501
372,1.7317856694149697109754517198076
373,1.7330033788290376257404130793988
374,1.7344672605052139825525232942078
375,1.7363797354162909314568984685994
376,1.7392977811424129594257577815928
377,1.7457847558102008483807415325435
