Eigenstate,Potential Energy
1,0.500000000014989196080939394205673048
2,0.64623093774895625480493239170797090
3,0.73633760999237726847754248980799371
4,0.79966527841286295354756372602805069
5,0.8480465763226240285029242750275587
6,0.8870659984748242823023719920871871
7,0.9197208263069301206277971782974821
8,0.9477838461955207802450801913031544
9,0.9723835571466659861335612108901599
10,0.9942802133088073829367296091687513
11,1.0140093848228964040703054234393828
12,1.0319621669934997892434666361785854
13,1.0484326898863771662495867994929111
14,1.0636476511846343975048974867147392
15,1.0777854320029035288367599956602575
16,1.090988901757784820977936460962990
17,1.103374251629349211002200399950080
18,1.115037245567336606007317161285056
19,1.126057743395132762722214291874655
20,1.136503038443705254996786325848166
21,1.146430363633300339192246597255800
22,1.155888802632182876548745617400427
23,1.164920767793160843412821426347693
24,1.173563157554007389025880682568392
25,1.181848273233387155377858726966807
26,1.189804552838443976607040599866086
27,1.197457164027376677776214980425175
28,1.204828487468478886116419932247658
29,1.211938514042090947961257209058344
30,1.218805173682424476438648095655829
31,1.225444609510281555718255784904336
32,1.231871407829791043474209316947756
33,1.238098792252636609527400377426281
34,1.244138788462704882806582572554882
35,1.250002364794887013327152911832815
36,1.255699552768288077543942029692556
37,1.261239550910014207084169154080390
38,1.266630814575288577859581088947602
39,1.271881133971798747146629746755431
40,1.276997702200357042765168359670062
41,1.281987174807205434835446187696279
42,1.286855722088303719144904469872616
43,1.291609075179453496286715643513529
44,1.296252566798016415266447289255221
45,1.300791167364415581308196646821032
46,1.305229517118472745024771869352294
47,1.309571954752157277807405702412194
48,1.313822543002736574061102743313860
49,1.317985091585654977030972517533165
50,1.32206317779234561132485092597023
51,1.32606016503271254277610804342367
52,1.32997921956367547200049642063356
53,1.33382332561271904946275131564763
54,1.33759529907782776841916679929367
55,1.34129779996171189959619158168917
56,1.34493334367815536134471709246448
57,1.34850431135111745389484002695008
58,1.35201295921242320004841884916281
59,1.35546142719112308737465403403280
60,1.35885174677657849927421446370917
61,1.36218584822776489477510741268895
62,1.36546556719298379181194199529353
63,1.36869265079693271972134719036191
64,1.37186876324576982676567371381378
65,1.37499549099527498852549096717762
66,1.37807434752236192394845564485158
67,1.38110677773593353451720413937892
68,1.38409416205931652119122031438501
69,1.38703782021319866305149420255402
70,1.38993901472506387331348134040344
71,1.39279895418852144464312548066373
72,1.39561879629362765333149105772472
73,1.39839965064724488548033149927720
74,1.40114258140066459979858153330149
75,1.40384860970008934050698687958956
76,1.40651871597411945709313198103208
77,1.40915384207108778924121192311371
78,1.41175489325791977708088933037157
79,1.41432274009114963690748767301005
80,1.41685822016978511688148017722798
81,1.41936213977886400573871496282674
82,1.42183527543178411698941159783883
83,1.42427837531879973729438943369772
84,1.42669216066845323599091810366946
85,1.42907732702815125656695161274974
86,1.43143454546957904549326745641129
87,1.43376446372418900302315769133311
88,1.43606770725357616283369798901335
89,1.43834488025916980522114006481534
90,1.44059656663532719183370819508290
91,1.44282333086959395787443174202016
92,1.44502571889360740016752462642915
93,1.44720425888785664442620539802737
94,1.44935946204327074632177583390268
95,1.45149182328238462692475981785189
96,1.45360182194263092097251247955396
97,1.45568992242412147430807473662390
98,1.45775657480410935254040122557223
99,1.45980221542016875078690383464206
100,1.46182726742398385394326852783190
101,1.46383214130750839277094800686172
102,1.46581723540313206637172126843057
103,1.46778293635938208800580782579380
104,1.46972961959358084649959729493454
105,1.47165764972278760173220273546781
106,1.47356738097426136844629926942616
107,1.47545915757660406067331318632160
108,1.47733331413266372950864175679258
109,1.47919017597520913343841334186411
110,1.48103005950632446029425877680158
111,1.48285327252140715871402370649603
112,1.48466011451860240335288777330293
113,1.48645087699445218229528474531176
114,1.48822584372648823736166837717432
115,1.48998529104345763950160333528631
116,1.49172948808382144981644597208593
117,1.49345869704313520374810246830583
118,1.49517317341087892486478623263697
119,1.49687316619727066095841394085569
120,1.49855891815057169293326726500544
121,1.50023066596535329972135513236207
122,1.50188864048217604932709442816028
123,1.50353306687910039317195194527076
124,1.50516416485542966110100473281084
125,1.50678214880805698815030225319397
126,1.50838722800077250687632142535660
127,1.50997960672686656116242184203845
128,1.51155948446534211022732420509730
129,1.51312705603103741832252007939088
130,1.51468251171894174373825900363898
131,1.51622603744297133661968261948020
132,1.51775781486945807789384545098495
133,1.51927802154559131002450353584742
134,1.52078683102304213435254578592256
135,1.52228441297698134143757610601008
136,1.52377093332069845328577105379652
137,1.52524655431601604840547224552126
138,1.52671143467967992864147464396549
139,1.52816572968590358083329057725522
140,1.52960959126522994037441201673329
141,1.53104316809986890625967978939512
142,1.53246660571566098394069594829703
143,1.53388004657080878214004068928491
144,1.53528363014151091013793946077071
145,1.53667749300462863428607563082547
146,1.53806176891750778375218592748017
147,1.53943658889507019253313744069756
148,1.54080208128429000674086771956573
149,1.54215837183615665809120207716324
150,1.54350558377522814444849055009927
151,1.54484383786687053165507946179489
152,1.54617325248227397579013553446332
153,1.54749394366133421552554799613400
154,1.54880602517348343379475515925466
155,1.55010960857654872474041844796151
156,1.55140480327371603227694013137181
157,1.55269171656867060684370423647347
158,1.55397045371898579842245843374942
159,1.5552411179878238586242614483704
160,1.5565038106940150893557172147231
161,1.5577586312605738341554172546545
162,1.5590056772617107732719584361861
163,1.5602450444683963757528574369583
164,1.5614768268925301451092791410436
165,1.5627011168297642587441743605186
166,1.5639180049010321167025557358436
167,1.5651275800928290320332813653920
168,1.5663299297962877516457688264612
169,1.5675251398450938697222079336294
170,1.5687132945522808767708457482442
171,1.5698944767459450387510563005888
172,1.5710687678039179728979776884994
173,1.5722362476874323225473755465923
174,1.5733969949738163744445463581858
175,1.5745510868882516034401141444798
176,1.5756985993346228508953401521360
177,1.5768396069254943973042175320845
178,1.5779741830112410834983145234256
179,1.5791023997083609253498831772347
180,1.5802243279270001683418967272846
181,1.5813400373977134305608261399589
182,1.5824495966974866294671691788813
183,1.5835530732750457416872588796055
184,1.5846505334754756373319405627652
185,1.5857420425641707969348499641125
186,1.5868276647501388795990813330373
187,1.5879074632086809428188185958646
188,1.5889815001034637502595550958784
189,1.5900498366080078985535562975753
190,1.5911125329266074141541500730858
191,1.5921696483147000427661694837146
192,1.5932212410987046135203471995582
193,1.5942673686953437817038200129516
194,1.5953080876304654907929683735840
195,1.5963434535573810861103184867737
196,1.5973735212747337719679021321296
197,1.5983983447439117875799790613301
198,1.5994179771060204636859899887457
199,1.6004324706984259936988271817152
200,1.6014418770708848595391557551500
201,1.6024462470012698885341969853540
202,1.6034456305109063174919441990053
203,1.6044400768795285186325321747926
204,1.6054296346598690022378710829905
205,1.6064143516918896613312667112936
206,1.6073942751166682770835255839330
207,1.6083694513899461555706929488097
208,1.6093399262953511172876940176221
209,1.6103057449573015822450742683987
210,1.6112669518536032462474873147960
211,1.6122235908277457073099851361956
212,1.6131757051009092693338138843236
213,1.6141233372836863009291884358346
214,1.6150665293875321250682887291570
215,1.6160053228359446457926703060281
216,1.6169397584753866664252311066155
217,1.6178698765859548583216925804662
218,1.6187957168918043526041307433102
219,1.6197173185713322278049202029508
220,1.6206347202671324015413053293570
221,1.6215479600957198285026927771158
222,1.6224570756570412021082712128811
223,1.6233621040437657206582274988409
224,1.6242630818503709772686858570470
225,1.6251600451820265301246886846888
226,1.6260530296632786909838578994871
227,1.6269420704465451747688290181537
228,1.6278272022204214204393642247298
229,1.6287084592178057352790223724317
230,1.6295858752238479488242773190057
231,1.6304594835837233656900207269851
232,1.6313293172102424261955701848185
233,1.6321954085912910602788315714830
234,1.6330577897971178807475728348380
235,1.6339164924874613869507372342795
236,1.6347715479185268776207898583076
237,1.6356229869498166929965107610865
238,1.6364708400508155172194289230697
239,1.6373151373075361765655395609652
240,1.6381559084289280869104884852091
241,1.6389931827531526317574328574589
242,1.6398269892537283267581409113613
243,1.6406573565455498014800406125958
244,1.6414843128907822866350026727433
245,1.6423078862046359798596367293447
246,1.6431281040610228085935275581054
247,1.6439449936980969718195506813114
248,1.6447585820236868411988179851684
249,1.6455688956206131900940101357853
250,1.6463759607519041345798554253060
251,1.6471798033659046858457565295988
252,1.6479804491012837118835193754627
253,1.6487779232919433800562197361736
254,1.6495722509718307367981690039055
255,1.6503634568796553038683714989245
256,1.6511515654635127759169570476986
257,1.6519366008854212101019067950907
258,1.6527185870257661518075288456768
259,1.6534975474876614993079668109112
260,1.6542735056012264930728219728388
261,1.6550464844277791427648508143276
262,1.6558165067639508166543187655859
263,1.6565835951457208433295539211391
264,1.6573477718523765758541485342543
265,1.6581090589103974428957649180575
266,1.6588674780972651538562477747798
267,1.6596230509452032705323242137728
268,1.6603757987448461783030927969144
269,1.6611257425488417260406503001327
270,1.6618729031753832581651200417427
271,1.6626173012116803220774961986649
272,1.6633589570173620298112564723650
273,1.6640978907278205162938773246189
274,1.6648341222574917025123800153926
275,1.6655676713030772384388131850132
276,1.6662985573467059033443144225302
277,1.6670267996590419467919701090381
278,1.6677524173023321242322103183768
279,1.6684754291334029296453735975400
280,1.6691958538066001180771150945640
281,1.6699137097766784068697860703060
282,1.6706290153016388518378766531196
283,1.6713417884455171108137606232039
284,1.6720520470811197510788549008294
285,1.6727598088927154079203457387297
286,1.6734650913786768190388309440295
287,1.6741679118540787940775520324907
288,1.6748682874532485210290550816397
289,1.6755662351322728575632103729244
290,1.6762617716714633397834188834176
291,1.6769549136777767493311704331348
292,1.6776456775871941237249608072931
293,1.6783340796670621156879032900589
294,1.6790201360183917383579899364825
295,1.6797038625781165835057729346018
296,1.6803852751213180982987274973052
297,1.6810643892634078523166164045687
298,1.6817412204622761115487733405663
299,1.6824157840204035222079542706627
300,1.6830880950869376549432211293479
301,1.6837581686597348208666574735495
302,1.6844260195873692523032463048588
303,1.6850916625711068213695428935269
304,1.6857551121668468738871571881067
305,1.6864163827870336071340404249581
306,1.6870754887025362546300981340151
307,1.6877324440444952599069692573040
308,1.6883872628061419176870686340118
309,1.6890399588445875717337894353640
310,1.6896905458825827045158704756882
311,1.6903390375102495135851983078889
312,1.6909854471867854877967650638335
313,1.6916297882421393761164147231247
314,1.6922720738786613532862469338237
315,1.6929123171727267019871437575582
316,1.6935505310763343871369212480665
317,1.6941867284186780609255808737241
318,1.6948209219076948498290211027926
319,1.6954531241315890651596386183382
320,1.6960833475603308384085624303515
321,1.6967116045471336003102716885150
322,1.6973379073299065180567855319074
323,1.6979622680326854046973636820256
324,1.6985846986670410778592641181720
325,1.6992052111334669297673303731318
326,1.6998238172227439457850209303669
327,1.7004405286172859922287375586153
328,1.7010553568924625626466042046433
329,1.7016683135179039574162242435986
330,1.7022794098587853283238498502261
331,1.7028886571770910266973373708024
332,1.7034960666328603163131708097910
333,1.7041016492854148296110838575547
334,1.7047054160945659512180953985479
335,1.7053073779218064436926819909898
336,1.7059075455314823735188138948044
337,1.7065059295919482095739009972821
338,1.7071025406767061529007301174753
339,1.7076973892655257622684006089462
340,1.7082904857455499668404223577409
341,1.7088818404123831795055514880972
342,1.7094714634711640079986686908471
343,1.7100593650376222015787740846356
344,1.7106455551391198269489530471949
345,1.7112300437156784927302965179496
346,1.7118128406209900972624362841801
347,1.7123939556234146650671086211147
348,1.7129733984069620836764131830909
349,1.7135511785722612857281651655323
350,1.7141273056375144186466958065331
351,1.7147017890394380894906773330278
352,1.7152746381341913673111101609186
353,1.7158458621982898273758774724718
354,1.7164154704295070517153856805893
355,1.7169834719477639512515594190487
356,1.7175498757960041192774803809210
357,1.7181146909410584553110984921816
358,1.7186779262744983033091180009472
359,1.7192395906134728493652254313804
360,1.7197996927015397167973954966948
361,1.7203582412094805034788686884904
362,1.7209152447361077429992048299017
363,1.7214707118090578852545069480268
364,1.7220246508855753204475870203813
365,1.7225770703532856828517277185145
366,1.7231279785309573119952553084055
367,1.7236773836692537632642876261293
368,1.7242252939514741566406440755833
369,1.7247717174942859961081837711151
370,1.7253166623484461728911055933943
371,1.7258601364995130058218167841483
372,1.7264021478685482753062918170620
373,1.7269427043128092175912953834770
374,1.7274818136264347878019876707583
375,1.7280194835411168833086511766372
376,1.7285557217267679836274249250590
377,1.7290905357921769960545898578457
378,1.7296239332856564744353779634377
379,1.7301559216956830508577864038232
380,1.7306865084515278370257339770330
381,1.7312157009238796707360394266698
382,1.7317435064254583256186058949207
383,1.7322699322116223587900690471475
384,1.7327949854809665601106359606544
385,1.7333186733759126242873203872400
386,1.7338410029832937044645592092181
387,1.7343619813349285966259852074063
388,1.7348816154081894915927884453042
389,1.7353999121265639692905634695255
390,1.7359168783602084243762564201650
391,1.7364325209264932401505367914113
392,1.7369468465905433191170911011006
393,1.7374598620657714436590809948888
394,1.7379715740144030479128301309848
395,1.7384819890479952576946302357411
396,1.7389911137279498493308341665031
397,1.7394989545660197572814795682195
398,1.7400055180248091386742264156030
399,1.7405108105182655605214450781463
400,1.7410148384121686095600450522447
401,1.7415176080246109736150840947350
402,1.7420191256264727396850764552746
403,1.7425193974418917294702148827553
404,1.7430184296487277654140580419080
405,1.7435162283790183326850671569569
406,1.7440127997194317461135508882327
407,1.7445081497117149387846399315244
408,1.7450022843531333754621334208017
409,1.7454952095969059519008339698408
410,1.7459869313526373945062100958392
411,1.7464774554867424203397024624509
412,1.7469667878228652400396603660991
413,1.7474549341422954826972776171488
414,1.7479419001843769665137090456990
415,1.7484276916469135991809914131586
416,1.7489123141865688375996722746436
417,1.7493957734192615554005560801319
418,1.7498780749205554814864278579852
419,1.7503592242260464880857562834313
420,1.7508392268317427102202831960237
421,1.7513180881944414487500564194006
422,1.7517958137321021385779975499884
423,1.7522724088242132181342457947977
424,1.7527478788121565138439582913156
425,1.7532222289995655189179931687887
426,1.7536954646526811732856180574858
427,1.7541675910007026292776464621410
428,1.7546386132361330167258121252293
429,1.7551085365151241198443200958761
430,1.7555773659578128279766625443717
431,1.7560451066486568638391817790977
432,1.7565117636367669387524044429827
433,1.7569773419362306727334790574061
434,1.7574418465264393773629682421087
435,1.7579052823524055250756811829896
436,1.7583676543250788058408086567169
437,1.7588289673216589325759239738394
438,1.7592892261859041773327820199499
439,1.7597484357284363195335288734770
440,1.7602066007270430774435656229715
441,1.7606637259269751827070232247937
442,1.7611198160412416615632016319537
443,1.7615748757509029704112877525301
444,1.7620289097053566050658204223960
445,1.7624819225226245143323434567555
446,1.7629339187896333422227683110330
447,1.7633849030624946679491434990669
448,1.7638348798667784618663872957907
449,1.7642838536977875978376855003701
450,1.7647318290208255744321583759788
451,1.7651788102714649480167885415350
452,1.7656248018558093190584915674057
453,1.7660698081507546146748278824696
454,1.7665138335042460563491822728820
455,1.7669568822355344366481940551188
456,1.7673989586354270019064394696608
457,1.7678400669665376365503318283860
458,1.7682802114635327449223015219449
459,1.7687193963333753444944654744709
460,1.7691576257555670127780407848918
461,1.7695949038823855376171257118666
462,1.7700312348391214838795926446140
463,1.7704666227243122802787970567643
464,1.7709010716099719871937792419516
465,1.7713345855418207141850387829884
466,1.7717671685395108178638223710574
467,1.7721988245968491605918476140340
468,1.7726295576820204456125494511974
469,1.7730593717378041052702931584576
470,1.7734882706817922668178314622340
471,1.7739162584066030628775777054399
472,1.7743433387800935841266350588451
473,1.7747695156455678250663158594208
474,1.7751947928219871268267356799146
475,1.7756191741041720397182922472390
476,1.7760426632630081192917766491592
477,1.7764652640456459888588669522618
478,1.7768869801757003444164035230520
479,1.7773078153534467913125748559323
480,1.7777277732560169071896444556839
481,1.7781468575375900820302424584397
482,1.7785650718295857040463101547324
483,1.7789824197408510713584680279547
484,1.7793989048578478491703888292478
485,1.7798145307448385492636669114648
486,1.7802293009440676165541787844246
487,1.7806432189759439714392185865611
488,1.7810562883392196043683992623892
489,1.7814685125111674506827741588473
490,1.7818798949477564087106091815780
491,1.7822904390838256352636583770255
492,1.7827001483332567065787686112543
493,1.7831090260891436195699944495258
494,1.7835170757239617272846784960714
495,1.7839243005897338009104512789945
496,1.7843307040181964626030119859014
497,1.7847362893209626745016758503229
498,1.7851410597896842290299007146830
499,1.7855450186962117376425422973453
500,1.785948169292754248330741026963
501,1.786350514812034237730253158568
502,1.786752058467445432819012071676
503,1.787152803453204930130098017251
504,1.787552752944507456114991696107
505,1.787951910097674615914541114373
506,1.788350278050304860414574141371
507,1.788747859921422019397658852357
508,1.789144658811622040530974011374
509,1.789540677803216164857156248655
510,1.789935919960376591798242293320
511,1.790330388329277864519247043314
512,1.790724085938237875615537121087
513,1.791117015797857108628238373467
514,1.791509180901156791617528604494
515,1.791900584223716336858468536734
516,1.792291228723808276814672150220
517,1.792681117342531770947390050092
518,1.793070253003946468564085452825
519,1.793458638615203509469315028686
520,1.793846277066676519240325853187
521,1.794233171232089394174599851996
522,1.794619323968645151929704279606
523,1.795004738117152284831759413476
