Eigenstate,Potential Energy
1,0.500000000023066006680667156421360221
2,0.64623093780167741392921243757693773
3,0.73633761014724118518023510947945560
4,0.79966527873542614093879933770597055
5,0.8480465768813680027688810370250727
6,0.8870659993394281317888233858707386
7,0.9197208275476337570908052517731791
8,0.9477838478828591377476768239490807
9,0.9723835593513451931184701973737902
10,0.9942802161016417020335131038375339
11,1.0140093882747737784389680810216646
12,1.0319621711753619662431981963384069
13,1.0484326948692077569291513496420868
14,1.0636476570394515030438424334654562
15,1.0777854388007551220164738350023634
16,1.090988909569745858104192624552683
17,1.103374260526519869344696713842373
18,1.115037255620841275922137841591995
19,1.126057754676119559527648121862545
20,1.136503051023345897388416289955349
21,1.146430377582790291668144039935412
22,1.155888818022741685637176727384048
23,1.164920784696032618624889730652662
24,1.173563176040461393581951178103320
25,1.181848293374718481394222417646650
26,1.189804574705974286126727839032032
27,1.197457187692454995761080793624082
28,1.204828513002482434914607898161112
29,1.211938541516426015236906720217446
30,1.218805203168527310374347818295725
31,1.225444641079619282662006061184298
32,1.231871441553862604230201448679961
33,1.238098828202973711273676396832603
34,1.244138826710872964226268632532068
35,1.250002405412486221009085426075086
36,1.255699595826954252076192691614927
37,1.261239596481419877554474685556568
38,1.266630862731143963707898301349759
39,1.271881184783852766500361831068526
40,1.276997755740398326537167062503426
41,1.281987231147063345986298810182705
42,1.286855781299849376610196900326821
43,1.291609137334600803151417191296862
44,1.296252631968723090835819548325446
45,1.300791235622684196780447583473011
46,1.305229588536351762517234383582545
47,1.309572029401742092527004988986832
48,1.313822620956170559442704153814095
49,1.317985172915130532694917020574511
50,1.32206326257010521372850417628051
51,1.32606025333104979845429676599440
52,1.32997931145493617330681364576609
53,1.33382342116930223273839939585350
54,1.33759539837218677452866553618406
55,1.34129790306635543678017973863780
56,1.34493345066564857034955070909944
57,1.34850442229408297534689225545639
58,1.35201307418354224404818896015137
59,1.35546154626313650529201777183804
60,1.35885187002228785773166871347198
61,1.36218597572003355181068060286168
62,1.36546569900473797521771403659536
63,1.36869278700116260755727549382844
64,1.37186890391553063005175152154575
65,1.37499563620368803611826348061515
66,1.37807449734261574961052495261173
67,1.38110693224128496619073761974299
68,1.38409432132309177248857563659009
69,1.38703798430879442697800756112901
70,1.38993918372594841823911750389473
71,1.39279912816823571254129692148458
72,1.39561897532578636030469130205129
73,1.39839983480553762459353653481580
74,1.40114277075885694624250235271655
75,1.40384880433202395911432146252336
76,1.40651891595371721223191688725169
77,1.40915404747234885711025361440440
78,1.41175510415492476043307153128820
79,1.41432295655806068222750643854688
80,1.41685844228084703404522683282617
81,1.41936236760840539018218343296480
82,1.42183550905421847441560871465264
83,1.42427861480862661094726157285826
84,1.42669240610025933652584270172116
85,1.42907757847661159454783087674852
86,1.43143480300945806654670100249380
87,1.43376472743034172568062840683048
88,1.43606797720094931909310300190745
89,1.43834515652280298385938077777571
90,1.44059684929035398450242964518051
91,1.44282361999124310801136441737560
92,1.44502601455720395475618968154332
93,1.44720456116882310863710960975428
94,1.44935977101712824106849503836193
95,1.45149213902475404936864371983416
96,1.45360214452923410800999854698803
97,1.45569025193078236907492976880723
98,1.45775691130675517396742419508024
99,1.45980255899483116624195384991704
100,1.46182761814680015499468488960884
101,1.46383249925472267410773355870568
102,1.46581760065109640791608094493223
103,1.46778330898455774025387054725389
104,1.46972999967253941912645021908503
105,1.47165803733221225549753126247885
106,1.47356777619094801043721582484948
107,1.47545956047746254292116723750783
108,1.47733372479471905101683372383552
109,1.47919059447560264565849209966791
110,1.48103048592231507608777161659879
111,1.48285370693037256483784206262217
112,1.48466055699804027650595268873200
113,1.48645132762198140876493180007961
114,1.48822630257985013630792626329478
115,1.48998575820051718991808553128631
116,1.49172996362256852120667771518492
117,1.49345918104168579055633472471775
118,1.49517366594747638470061011037271
119,1.49687366735028695665466953459871
120,1.49855942799850863847700081497866
121,1.50023118458684381009778789256165
122,1.50188916795598539431680357507336
123,1.50353360328412745514168344361325
124,1.50516471027070819682876904150535
125,1.50678270331275689472564699792828
126,1.50838779167420109171688238021684
127,1.50998017964846981618810944920389
128,1.51156006671470599023373147284046
129,1.51312764768788912359536604083633
130,1.51468311286315100695091946538614
131,1.51622664815455171405610763296888
132,1.51775843522856824503942580303148
133,1.51927865163253636156760611069351
134,1.52078747091827488863980127270135
135,1.52228506276110364942617433502063
136,1.52377159307446251203624760920559
137,1.52524722412032571915880966505587
138,1.52671211461559205952449705919299
139,1.52816641983462933423664679825759
140,1.52961029170813612504770948221438
141,1.53104387891847931416848417760961
142,1.53246732699165773193053755064016
143,1.53388077838603365845266772627042
144,1.53528437257796672582548301660076
145,1.53667824614448057956891850844840
146,1.53806253284308478936664996619159
147,1.53943736368886629611546648085635
148,1.54080286702896572429407941403397
149,1.54215916861454036058182116868422
150,1.54350639167031743958037931581157
151,1.54484465696183365086786293985729
152,1.54617408286045116653004193972362
153,1.54749478540623913883678733573226
154,1.54880687836880456727974158870867
155,1.55011047330615077093756863379827
156,1.55140567962164133250502550062843
157,1.55269260461914056056198559792974
158,1.55397135355640228815625823842305
159,1.5552420296967706805057785101399
160,1.5565047343592593893303125736419
161,1.5577595669670675499038815283448
162,1.5590066250945920818995793681292
163,1.5602460045129911472964048619078
164,1.5614777992343534019133853193000
165,1.5627021015545216407589097989024
166,1.5639190020946213527542703817537
167,1.5651285898413414171211790780259
168,1.5663309521860096303170108888371
169,1.5675261749625081255785975945761
170,1.5687143424840684281606158951853
171,1.5698955375789863406995108123311
172,1.5710698416252945253311604810813
173,1.5722373345844281848632351485386
174,1.5733980950339196864864670316136
175,1.5745522001991561129279971859317
176,1.5756997259842294473698397379292
177,1.5768407470019126526400163114561
178,1.5779753366027907990427823037121
179,1.5791035669035736857437443039128
180,1.5802255088146209020790080661562
181,1.5813412320667019773444503962814
182,1.5824508052370193144205352511395
183,1.5835542957745169564766673304865
184,1.5846517700244994282609345051825
185,1.5857432932525824600684908929825
186,1.5868289296679965629776317713730
187,1.5879087424462672558206757154213
188,1.5889827937512873801735997878101
189,1.5900511447568052344214691423566
190,1.5911138556673441779437831741675
191,1.5921709857385729279373197652721
192,1.5932225932971429310448174906783
193,1.5942687357600111136020416012120
194,1.5953094696532613512498806945607
195,1.5963448506304425902336189756695
196,1.5973749334904373122522872458189
197,1.5983997721948747181413614844310
198,1.5994194198851027923301461319060
199,1.6004339288987320818894425808282
200,1.6014433507857651303306056669346
201,1.6024477363243225425348551523808
202,1.6034471355359790569244118229587
203,1.6044415977007202795574718793399
204,1.6054311713715316950087411275795
205,1.6064159043886299193476157203935
206,1.6073958438933492139111069687526
207,1.6083710363416891304970560710549
208,1.6093415275175375093824652415048
209,1.6103073625455745729945558851719
210,1.6112685859038696108338282345305
211,1.6122252414361776146055750345178
212,1.6131773723639460906820554776615
213,1.6141250212980364277834766717037
214,1.6150682302501747955613495024524
215,1.6160070406441317803090624775307
216,1.6169414933266447122503075791377
217,1.6178716285780866434408968709016
218,1.6187974861228909487269215552303
219,1.6197191051397348226883461868652
220,1.6206365242714941806886967185925
221,1.6215497816349678663134476943554
222,1.6224589148303883625554389070255
223,1.6233639609507125675710222809194
224,1.6242649565907076942976515437786
225,1.6251619378558348504679229622714
226,1.6260549403709338369531563517848
227,1.6269439992887178072753016914301
228,1.6278291492980795984786240825042
229,1.6287104246322168854966476519736
230,1.6295878590765808452429150692244
231,1.6304614859766501196800292178713
232,1.6313313382455404867718157444983
233,1.6321974483714452248067788372429
234,1.6330598484249223161425550895268
235,1.6339185700660216614548343345086
236,1.6347736445512620032424421823972
237,1.6356251027404611786986551153654
238,1.6364729751034214329425473395151
239,1.6373172917264752281727661901684
240,1.6381580823188937021425171614918
241,1.6389953762191620572856846039463
242,1.6398292024011247364252633225010
243,1.6406595894800044158177027151581
244,1.6414865657182965037493512674510
245,1.6423101590315435177757512589182
246,1.6431303969939918591508078784907
247,1.6439473068441323662106774066774
248,1.6447609154901322272456663094047
249,1.6455712495151532213546968108643
250,1.6463783351825666713817160253871
251,1.6471821984410630083399891942712
252,1.6479828649296587452177376994182
253,1.6487803599826059317621125866696
254,1.6495747086342037464922405712776
255,1.6503659356235161053642998219649
256,1.6511540653989953718492159001225
257,1.6519391221230185591608311449220
258,1.6527211296763324686869024296732
259,1.6535001116624145674670090256077
260,1.6542760914117499904153490326333
261,1.6550490919860249803390331789801
262,1.6558191361822414904775119515607
263,1.6565862465367517994432944077426
264,1.6573504453292185887154841310729
265,1.6581117545864990072117741347818
266,1.6588701960864548899695392440487
267,1.6596257913616923434661963769884
268,1.6603785617032307305758874074048
269,1.6611285281641053243597777184469
270,1.6618757115628993541120885849494
271,1.6626201324872147268961411311990
272,1.6633618112970754034125041976368
273,1.6641007681282708705909929105750
274,1.6648370228956369192018675814615
275,1.6655705952962776013428631027118
276,1.6663015048127266454318953001884
277,1.6670297707160558119963786822539
278,1.6677554120689219441840688588591
279,1.6684784477285642154408952252966
280,1.6691988963497436672025947891779
281,1.6699167763876329254041655427767
282,1.6706321061006535920564247562862
283,1.6713449035532645243166400593710
284,1.6720551866186981575696684754640
285,1.6727629729816516797607477616227
286,1.6734682801409290817061638988895
287,1.6741711254120391426537831690501
288,1.6748715259297457528502035146303
289,1.6755694986505752211596842682797
290,1.6762650603552813002425988703064
291,1.6769582276512657702149201816715
292,1.6776490169749574656755758920525
293,1.6783374445941536518574619943657
294,1.6790235266103187867971071725010
295,1.6797072789608427566487673397386
296,1.6803887174212661696835461824786
297,1.6810678576074626406789908370970
298,1.6817447149777873824314211477118
299,1.6824193048351889072264559851269
300,1.6830916423292855888519136861106
301,1.6837617424584074965688339940324
302,1.6844296200716055939511656001971
303,1.6850952898706254757011946880279
304,1.6857587664118492199478465114264
305,1.6864200641082067845321904993375
306,1.6870791972310562104780059479051
307,1.6877361799120298145985445944344
308,1.6883910261448538496658508839587
309,1.6890437497871377214058759985500
310,1.6896943645621330974639401260080
311,1.6903428840604665032406779510501
312,1.6909893217418429177293856004183
313,1.6916336909367217621009958981430
314,1.6922760048479670853082398222472
315,1.6929162765524712663501640272902
316,1.6935545190027536088366020104696
317,1.6941907450285313664554939570280
318,1.6948249673382685505861583426562
319,1.6954571985206996616183991222352
320,1.6960874510463283452332292689987
321,1.6967157372689048925781554345334
322,1.6973420694268786987652938518974
323,1.6979664596448291937297758600406
324,1.6985889199348742225859693550171
325,1.6992094621980576374603528602711
326,1.6998280982257143380255644593632
327,1.7004448397008155814890245287413
328,1.7010596981992917512289211124186
329,1.7016726851913375589335399456826
330,1.7022838120426961119085232187317
331,1.7028930900159232841255197134435
332,1.7035005302716334522345328744404
333,1.7041061438697269750751965216163
334,1.7047099417705976006905030163584
335,1.7053119348363241157553208162269
336,1.7059121338318422954514490693402
337,1.7065105494261000260149144337102
338,1.7071071921931966587873004887276
339,1.7077020726135026602580978735521
340,1.7082952010747656494179252251702
341,1.7088865878731985359803181392274
342,1.7094762432145522566011135379029
343,1.7100641772151727468642133614160
344,1.7106503999030421427209386816237
345,1.7112349212188060306965815990278
346,1.7118177510167842216388469042239
347,1.7123988990659686133466450774429
348,1.7129783750510049537828926861513
349,1.7135561885731620497756829597490
350,1.7141323491512859635284183767771
351,1.7147068662227412845222460213962
352,1.7152797491443391591563298819321
353,1.7158510071932513624843287209157
354,1.7164206495679118265037425798515
355,1.7169886853889059902627638323497
356,1.7175551236998461815536181775705
357,1.7181199734682362692186687262376
358,1.7186832435863248300571387251456
359,1.7192449428719425754592059406982
360,1.7198050800693329756740533239352
361,1.7203636638499678265694208987004
362,1.7209207028133542404708063081042
363,1.7214762054878276566820832173571
364,1.7220301803313358956704690033078
365,1.7225826357322124932724170689060
366,1.7231335800099381925792428822727
367,1.7236830214158934855031921101628
368,1.7242309681340989927427794638804
369,1.7247774282819483146835541327295
370,1.7253224099109290664002688958602
371,1.7258659210073349500604752993923
372,1.7264079694929678212003539681756
373,1.7269485632258297155796436812481
374,1.7274877100008091450867692530800
375,1.7280254175503523542556025494874
376,1.7285616935451309936017221739537
377,1.7290965455946979989802483307689
378,1.7296299812481348443689088634383
379,1.7301620079946920078698388931095
380,1.7306926332644194076870910141597
381,1.7312218644287896835076555525279
382,1.7317497088013114414475252132648
383,1.7322761736381371372167794113705
384,1.7328012661386605611957235075196
385,1.7333249934461075466689337377267
386,1.7338473626481205598606651670446
387,1.7343683807773329210987448328191
388,1.7348880548119365938955377675587
389,1.7354063916762442166208261343933
390,1.7359233982412425658615756625607
391,1.7364390813251377683971013224132
392,1.7369534476938958701541440191238
393,1.7374665040617762356157110702975
394,1.7379782570918563587668804658770
395,1.7384887133965509424369366495578
396,1.7389978795381248968912422290769
397,1.7395057620291998875666478388495
398,1.7400123673332544400705828095018
399,1.7405177018651161682204673564289
400,1.7410217719914504250661510470620
401,1.7415245840312414258003502978232
402,1.7420261442562665877585861275177
403,1.7425264588915669082333285914868
404,1.7430255341159112731769271865750
405,1.7435233760622521622230989991762
406,1.7440199908181788590467324368921
407,1.7445153844263652837660892414703
408,1.7450095628850099505665571300950
409,1.7455025321482709116069951122717
410,1.7459942981266982016721963359456
411,1.7464848666876580435729813040771
412,1.7469742436557523968686131502624
413,1.7474624348132349289548078821998
414,1.7479494459004198323478250044553
415,1.7484352826160877721110378865171
416,1.7489199506178853930418816209084
417,1.7494034555227212350900520667384
418,1.7498858029071552202280264292481
419,1.7503669983077859892699235239086
420,1.7508470472216310705447350018427
421,1.7513259551065038325927138976020
422,1.7518037273813865024711808352620
423,1.7522803694267970857945621791570
424,1.7527558865851538022172605175958
425,1.7532302841611334157033547000682
426,1.7537035674220270664073064185306
427,1.7541757415980910887782481391394
428,1.7546468118828928295597543530892
429,1.7551167834336553780546625756257
430,1.7555856613715940707442984750450
431,1.7560534507822522738975719717045
432,1.7565201567158335936670063306073
433,1.7569857841875258515495814226946
434,1.7574503381778279231314596916473
435,1.7579138236328672637711391057869
436,1.7583762454647160221920561530130
437,1.7588376085517039033343676370649
438,1.7592979177387267625095794095805
439,1.7597571778375516121421632561361
440,1.7602153936271191122899905314588
441,1.7606725698538407047754769913474
442,1.7611287112318939545511121245693
443,1.7615838224435157459735296037354
444,1.7620379081392879533331226447394
445,1.7624909729384249162759508884108
446,1.7629430214290537444427050995140
447,1.7633940581684946204700167744313
448,1.7638440876835343195307449756829
449,1.7642931144707007858933315511300
450,1.7647411429965309189159536529758
451,1.7651881776978390715442819218551
452,1.7656342229819791026350634276126
453,1.7660792832271057261506888976653
454,1.7665233627824315461471354670961
455,1.7669664659684834014002133370788
456,1.7674085970773533166415821431711
457,1.7678497603729487560837147212266
458,1.7682899600912385751017327529855
459,1.7687292004404971839684759378363
460,1.7691674856015465659565492675847
461,1.7696048197279939995027732313006
462,1.7700412069464686974556769431051
463,1.7704766513568559671467588686151
464,1.7709111570325270521612201098716
465,1.7713447280205686245124320216760
466,1.7717773683420090578862897663646
467,1.7722090819920407624400706245677
468,1.7726398729402435967645716442988
469,1.7730697451308018336746252580838
470,1.7734987024827222043358267893946
471,1.7739267488900472878015432461780
472,1.7743538882220685435387613309762
473,1.7747801243235343378115335186447
474,1.7752054610148604678814808960685
475,1.7756299020923321067456928088702
476,1.7760534513283096821829431225631
477,1.7764761124714290230679678054296
478,1.7768978892468004489075780893894
479,1.7773187853562056919446497842744
480,1.7777388044782930463742315956718
481,1.7781579502687692955089224689481
482,1.7785762263605919856407665581082
483,1.7789936363641574265581154637801
484,1.7794101838674872384313166400521
485,1.7798258724364149219026905492403
486,1.7802407056147670361314922467449
487,1.7806546869245458335340129097884
488,1.7810678198661079476610170927582
489,1.7814801079183423622681444066480
490,1.7818915545388455245779256013483
491,1.7823021631640957368877906329325
492,1.7827119372096254145799410152157
493,1.7831208800701911854091602260273
494,1.7835289951199429239727228461142
495,1.7839362857125899137208990243047
496,1.7843427551815673807892923903962
497,1.7847484068401990850314691159599
498,1.7851532439818599133603814736549
499,1.7855572698801359725728308650422
500,1.785960487788984311978980083721
501,1.786362900942888021695750741713
502,1.786764512557014161601293581631
503,1.787165325827365988890091232633
504,1.787565343930937327875059845769
505,1.787964570025861929307935851564
506,1.788363007251563549107078845389
507,1.788760658728904594317516263576
508,1.789157527560332976056624690047
509,1.789553616830025400125624203220
510,1.789948929604033148310877609194
511,1.790343468930423581234438919599
512,1.790737237839421262733644575162
513,1.791130239343547321286733393259
514,1.791522476437757724729426733625
515,1.791913952099580842341228564869
516,1.792304669289252504472463921948
517,1.792694630949849634283434625597
518,1.793083840007424236815530087414
519,1.793472299371134527172624692086
520,1.793860011933376054650487173666
521,1.794246980569909617877029387071
522,1.794633208139990247000656554597
523,1.795018697486493689917817423726
