Eigenstate,Potential Energy
1,0.500000000013595527392748592120026637
2,0.64623093773985912713877006464127350
3,0.73633760996565525949816765984491837
4,0.79966527835720425835988291494835820
5,0.8480465762262122162710977874926465
6,0.8870659983256363982295833852062490
7,0.9197208260928465887247525397641408
8,0.9477838459043712984170661694316321
9,0.9723835567662509235548405488309048
10,0.9942802128269086918604796448434899
11,1.0140093842272835955476619900765475
12,1.0319621662719333935179668883277815
13,1.0484326890266108238311275156190928
14,1.0636476501744161622288511530672925
15,1.0777854308299766955595554119743515
16,1.090988900409888454703157250140331
17,1.103374250094218481821048197668719
18,1.115037243832702993842912503061141
19,1.126057741448724172416697241483365
20,1.136503036273246068180068047667191
21,1.146430361226511420625522748095496
22,1.155888799976781547058762142586606
23,1.164920764876860827886881350595426
24,1.173563154364518745500058980963144
25,1.181848269758416189587917068648658
26,1.189804549065693145215889746491814
27,1.197457159944544482675056676560704
28,1.204828483063259761610554127683090
29,1.211938509302175142224868928522518
30,1.218805168595497928308223050136679
31,1.225444604064025767659392405251953
32,1.231871402011882951379296184243365
33,1.238098786050748449866395634755259
34,1.244138781864504057548978534708735
35,1.250002357788035952972267322182134
36,1.255699545340444102533236460045613
37,1.261239543048829387819173979872445
38,1.266630806268409593509115305708296
39,1.271881125206866743395029505462327
40,1.276997692965007488627437750489641
41,1.281987165089067978644299175349639
42,1.286855711875002043797558024913079
43,1.291609064458605173825243204240094
44,1.296252555557232760853903628260227
45,1.300791155591301506653096089649716
46,1.305229504800626611298475879617588
47,1.309571941877170748092250973500600
48,1.313822529558194465361445016861474
49,1.317985077559135111874543048162934
50,1.32206316317141866897776872176449
51,1.32606014980494191009143970610556
52,1.32997920371661709391730759026874
53,1.33382330913392127917006397836941
54,1.33759528195483121719706371210646
55,1.34129778218204928634442610245677
56,1.34493332522935136180756543035889
57,1.34850429222068854958951823451952
58,1.35201293938787752690315665057118
59,1.35546140665996028408144196448382
60,1.35885172552628955536030164635791
61,1.36218582624583199839650200278730
62,1.36546554446688017727142938253603
63,1.36869262731412251471290988495397
64,1.37186873899370789934662086646221
65,1.37499546596140679381710443422576
66,1.37807432169412335056550531621942
67,1.38110675110075075072629419816317
68,1.38409413460460582079756264947520
69,1.38703779192636631101338838665174
70,1.38993898559350595108349602130356
71,1.39279892419962369523471185434810
72,1.39561876543476532610953293241088
73,1.39839961890578258067392097230244
74,1.40114254876395611273412174260490
75,1.40384857615547750555954784087241
76,1.40651868150893599135383356638435
77,1.40915380667265313589825859139961
78,1.41175485691354294851175337455139
79,1.41432270278812805747961596051288
80,1.41685818189540446545879790617135
81,1.41936210052039805789108405035367
82,1.42183523517649458690211796818475
83,1.42427833405393611937464675958579
84,1.42669211838125264616829359664777
85,1.42907728370583827328454873477327
86,1.43143450109936555038642525630952
87,1.43376441829327402128236727367331
88,1.43606766074914570324837224172243
89,1.43834483266839669990082005835509
90,1.44059651794537093560324036033817
91,1.44282328106760054733958789125688
92,1.44502566796670917244749667980810
93,1.44720420682317211554936880284746
94,1.44935940882790444928106139961490
95,1.45149176890342694938893767936283
96,1.45360176638715794264965667466726
97,1.45568986567919480395743237280333
98,1.45775651685677596462886643832918
99,1.45980215625746082178625204452030
100,1.46182720703291859826427523794900
101,1.46383207967508789833049131010063
102,1.46581717251634312978892956909306
103,1.46778287220519604942328988083865
104,1.46972955415895342402575623970131
105,1.47165758299465872550061600272554
106,1.47356731293955501428811291715328
107,1.47545908822222808339856814327721
108,1.47733324344550969579243995911215
109,1.47919010394215215430778475456482
110,1.48102998611422302321158282609696
111,1.48285319775710295925281900686545
112,1.48466003836892017646176783270691
113,1.48645079944619953314585474165578
114,1.48822576476645547177610717299051
115,1.48998521065841759395565581894030
116,1.49172940626052932101352371753455
117,1.49345861376832837776017059853493
118,1.49517308867127680583568935747971
119,1.49687307997957449936527165555169
120,1.49855883044146441340154490199678
121,1.50023057675149932838919665614979
122,1.50188854975022114075447084527111
123,1.50353297461567145679016622169916
124,1.50516407104713458719807508102903
125,1.50678205344148447338770482619967
126,1.50838713106249187933256447778033
127,1.50997950820342760489890230856605
128,1.51155938434327488937188086131039
129,1.51312695429685210066608861231188
130,1.51468240835912842384000674567874
131,1.51622593244399985841597144262188
132,1.51775770821777785680635115941484
133,1.51927791322763115456280360121619
134,1.52078672102521006720646224210427
135,1.52228430128566442005451594039414
136,1.52377081992226258992831752987073
137,1.52524643919680582968443131412018
138,1.52671131782601843451956158865656
139,1.52816561108409220309462670594492
140,1.52960947090154820055496449999852
141,1.53104304596057427303376064460053
142,1.53246648178698868995861479990535
143,1.53387992083897164031196944664863
144,1.53528350259269912935903381274815
145,1.53667736362500963459786974801544
146,1.53806163769322601093524463919044
147,1.53943645581224693212593167438646
148,1.54080194632902319747981866128227
149,1.54215823499452070476679798169638
150,1.54350544503327373017236601662855
151,1.54484369721062442953291972137142
152,1.54617310989773885999523390032023
153,1.54749379913448847176782779284311
154,1.54880587869028096918003576671181
155,1.55010946012291877701468242206170
156,1.55140465283556297845031306345127
157,1.55269156413187377118886039297593
158,1.55397029926939925984211327765157
159,1.5552409615112762573823996838777
160,1.5565036521763094331671639021167
161,1.5577584706874873036283476439578
162,1.5590055146189945266978776237854
163,1.5602448797417753532386056261902
164,1.5614766600677028720455547933552
165,1.5627009478924026486050273034590
166,1.5639178338367812731702956912361
167,1.5651274068873070504432314467569
168,1.5663297544350855197452064932939
169,1.5675249623137748677378780871395
170,1.5687131148363809767793302102816
171,1.5698942948309723033463033852101
172,1.5710685836753524531502420902348
173,1.5722360613307258552477986503424
174,1.5733968063743923786295476290800
175,1.5745508960315048761897731102597
176,1.5756984062059193623998902474569
177,1.5768394115101710851927288827848
178,1.5779739852946056464236470380218
179,1.5791021996756916158239279634267
180,1.5802241255635455848150983712941
181,1.5813398326886923087399450975496
182,1.5824493896280876328652068583811
183,1.5835528638304272513994371311171
184,1.5846503216407655410315976504566
185,1.5857418283244662770830555737705
186,1.5868274480905062008617819740119
187,1.5879072441141552386852325067328
188,1.5889812785590488088555546082755
189,1.5900496125986759476436991820519
190,1.5911123064372989053260026111227
191,1.5921694193303234347905202060130
192,1.5932210096041361548808853911647
193,1.5942671346754272922898021722765
194,1.5953078510700121427483473621768
195,1.5963432144411691838328220066392
196,1.5973732795875085312514219762520
197,1.5983981004703851138936930929887
198,1.5994177302308707295835117465543
199,1.6004322212062978153507044672568
200,1.6014416249463888723819525566826
201,1.6024459922289825220293780582250
202,1.6034453730753695689877381361215
203,1.6044398167652497263218991652643
204,1.6054293718513206172056670278615
205,1.6064140861735090186836370466409
206,1.6073940068728573661525572854039
207,1.6083691804050713891872729733928
208,1.6093396525537431001154926813740
209,1.6103054684432548781685246574750
210,1.6112666725513761448066075410178
211,1.6122233087215599891748143993062
212,1.6131754201749499708112128236147
213,1.6141230495221014774947051818112
214,1.6150662387744326139157296934071
215,1.6160050293554038273940006590133
216,1.6169394621114402250933372103464
217,1.6178695773226005417685630147852
218,1.6187954147130017304868685881992
219,1.6197170134610024492520497670033
220,1.6206344122091579516517340351510
221,1.6215476490739442838096222337778
222,1.6224567616552689850003682559044
223,1.6233617870457618527502652821151
224,1.6242627618398608317138237185671
225,1.6251597221426955828605308706678
226,1.6260527035787722709043535248232
227,1.6269417413004682128140419946401
228,1.6278268699963381975950821262530
229,1.6287081238992396294781316730604
230,1.6295855367942811807417598208971
231,1.6304591420265967434234095224131
232,1.6313289725089550888226049726628
233,1.6321950607292002202840315141864
234,1.6330574387575385653093841305254
235,1.6339161382536661780808505207846
236,1.6347711904737456511471808851364
237,1.6356226262772363563816690542449
238,1.6364704761335797462052423766170
239,1.6373147701287451506361976569792
240,1.6381555379716382235647090700376
241,1.6389928090003763195812879698812
242,1.6398266121884336572896871073831
243,1.6406569761506602998569044275966
244,1.6414839291491766410159842385782
245,1.6423074990991477696113907310973
246,1.6431277135744402312332486829326
247,1.6439445998131625687046174053213
248,1.6447581847230972219542042476098
249,1.6455684948870187557682477242350
250,1.6463755565679087995202916555755
251,1.6471793957140655982837557200703
252,1.6479800379641109732201769792282
253,1.6487775086518997628391578021615
254,1.6495718328113314013798692394696
255,1.6503630351810675137364231511722
256,1.6511511402091556116865870561927
257,1.6519361720575652821610367385029
258,1.6527181546066333116045868972652
259,1.6534971114594245492725468525546
260,1.6542730659460088951593224941202
261,1.6550460411276547256090224387528
262,1.6558160598009434813326925946891
263,1.6565831445018042677116102050453
264,1.6573473175094739175369912514593
265,1.6581086008503810407110363988557
266,1.6588670163019562279389351176859
267,1.6596225853963716209410092663193
268,1.6603753294242098821811705952382
269,1.6611252694380668333079369889141
270,1.6618724262560834857291912700906
271,1.6626168204654167465540540512010
272,1.6633584724256427787427168671188
273,1.6640974022721004578553027895433
274,1.6648336299191721336938089386970
275,1.6655671750635055716929770906334
276,1.6662980571871753516886031269511
277,1.6670262955607912073534917494500
278,1.6677519092465450602246545622741
279,1.6684749171012082507663576797027
280,1.6691953377790710593145799866407
281,1.6699131897348324057059161366937
282,1.6706284912264372238389803792932
283,1.6713412603178647235944229259535
284,1.6720515148818646966286196905029
285,1.6727592726026486732810609978348
286,1.6734645509785319553207371950028
287,1.6741673673245315838021358933306
288,1.6748677387749166437865116418121
289,1.6755656822857155539723531660689
290,1.6762612146371810737417699249273
291,1.6769543524362108685428573525153
292,1.6776451121187265184939499586758
293,1.6783335099520148759640339770764
294,1.6790195620370268090231778549222
295,1.6797032843106354178876344143085
296,1.6803846925478613098988059874459
297,1.6810638023640548647403058251368
298,1.6817406292170448066238945139613
299,1.6824151884092498862788981977424
300,1.6830874950897554233274479494496
301,1.6837575642563551204602460518347
302,1.6844254107575602423220657739303
303,1.6850910492945733322126004222775
304,1.6857544944232300441084558607261
305,1.6864157605559105185092824441851
306,1.6870748619634195653044074923204
307,1.6877318127768328356097388580127
308,1.6883866269893164609999127373961
309,1.6890393184579162493974819157264
310,1.6896899009053167727620412828239
311,1.6903383879215739414784653723009
312,1.6909847929658185785728438216668
313,1.6916291293679323865017033293563
314,1.6922714103301981107841720749544
315,1.6929116489289232201165079036060
316,1.6935498581160384786074431476750
317,1.6941860507206689487355496179431
318,1.6948202394506827762700063855138
319,1.6954524368942148987129855685325
320,1.6960826555211656785184121680252
321,1.6967109076846783800175599475562
322,1.6973372056225916044787620956771
323,1.6979615614588701973368135258817
324,1.6985839872050136047277876764268
325,1.6992044947614434413065485598226
326,1.6998230959188685065697293753032
327,1.7004398023596300704359900535515
328,1.7010546256590246172741536126213
329,1.7016675772866090232340802780509
330,1.7022786686074845985423428484977
331,1.7028879108835614333350406271376
332,1.7034953152748041082477731250134
333,1.7041008928404591482963827297918
334,1.7047046545402624040499531721969
335,1.7053066112356306750067924444565
336,1.7059067736908336332029242463141
337,1.7065051525741489192770158065505
338,1.7071017584590014698216624732333
339,1.7076966018250831405059492500243
340,1.7082896930594587162872758733917
341,1.7088810424576540222678951861132
342,1.7094706602247286323232991850280
343,1.7100585564763328132694642247234
344,1.7106447412397486982535411539786
345,1.7112292244549175086799313300748
346,1.7118120159754502994442866029964
347,1.7123931255696257928114810369790
348,1.7129725629213721126394150778289
349,1.7135503376312359638506491717056
350,1.7141264592173367994699952150467
351,1.7147009371163080628098376089299
352,1.7152737806842251871459092581932
353,1.7158449991975196372396982954972
354,1.7164146018538804071620743265288
355,1.7169825977731433396801350357577
356,1.7175489959981664769743367462984
357,1.7181138054956946817093085282719
358,1.7186770351572127724441752209320
359,1.7192386937997829185064920762254
360,1.7197987901668752322341756159830
361,1.7203573329291833034401636155472
362,1.7209143306854311576857257170126
363,1.7214697919631662339615176642541
364,1.7220237252195434057568911818450
365,1.7225761388420982818711696074145
366,1.7231270411495086646234248437193
367,1.7236764403923470574586278203686
368,1.7242243447538210106663485913016
369,1.7247707623505059377453684989595
370,1.7253157012330661155777122514096
371,1.7258591693869667217092047183564
372,1.7264011747331758652044588485113
373,1.7269417251288565777804582893756
374,1.7274808283680530736870663311832
375,1.7280184921823619698929919599711
376,1.7285547242415999227819086167933
377,1.7290895321544594705581211185332
378,1.7296229234691562487623757921082
379,1.7301549056740694186884196223526
380,1.7306854861983720654540321198288
381,1.7312146724126544411512457028070
382,1.7317424716295371712345749684105
383,1.7322688911042790987974842028338
384,1.7327939380353747304265747112035
385,1.7333176195651449048764638529730
386,1.7338399427803213432061822440163
387,1.7343609147126208297005675003676
388,1.7348805423393129603619173858802
389,1.7353988325837821336436475893451
390,1.7359157923160809725171456332361
391,1.7364314283534754947971620565789
392,1.7369457474609856400869037289061
393,1.7374587563519186268126848886957
394,1.7379704616883937204282657232372
395,1.7384808700818612696444062049526
396,1.7389899880936156615334446998953
397,1.7394978222353018253991220793387
398,1.7400043789694152935279481118664
399,1.7405096647097943845950718054655
400,1.7410136858221088096635455855839
401,1.7415164486243407496781145223221
402,1.7420179593872591496511638622361
403,1.7425182243348900502614865029114
404,1.7430172496449808499366806196898
405,1.7435150414494559628448540678017
406,1.7440116058348699818111502805104
407,1.7445069488428554628592842059349
408,1.7450010764705628345530657569415
409,1.7454939946710952931946977870894
410,1.7459857093539411983388600429168
411,1.7464762263853982286205129128301
412,1.7469655515889928804658893433657
413,1.7474536907458963887262059543080
414,1.7479406495953334930596054141597
415,1.7484264338349883340037736843234
416,1.7489110491214039083521219502769
417,1.7493945010703779323001569587925
418,1.7498767952573522755781196579801
419,1.7503579372178002450611693541617
420,1.7508379324476066997590642029785
421,1.7513167864034449493482432312235
422,1.7517945045031497178286542819486
423,1.7522710921260840084244869096040
424,1.7527465546135034834328768460145
425,1.7532208972689147383593908668595
426,1.7536941253584310771590967258120
427,1.7541662441111232731912904919848
428,1.7546372587193653295536206821774
429,1.7551071743391791511608635585249
430,1.7555759960905709906514018616760
431,1.7560437290578671717523503843361
432,1.7565103782900462395941783283588
433,1.7569759488010628758476717632672
434,1.7574404455701746765962952388449
435,1.7579038735422596165932429253120
436,1.7583662376281321008679863585938
437,1.7588275427048557650266336774789
438,1.7592877936160520062837781011501
439,1.7597469951722049265037429384138
440,1.7602051521509637584376300978051
441,1.7606622692974399349811519577754
442,1.7611183513245023650717468491681
443,1.7615734029130705638917046127356
444,1.7620274287124002567192760388697
445,1.7624804333403707870570648658564
446,1.7629324213837653533566886277498
447,1.7633833973985512434780085308959
448,1.7638333659101532850531919953891
449,1.7642823314137283522288885224372
450,1.7647302983744330811955452654918
451,1.7651772712276922975657443583954
452,1.7656232543794609969167723739262
453,1.7660682522064856215356731437755
454,1.7665122690565610222821262688790
455,1.7669553092487867294064327808350
456,1.7673973770738178292873663728293
457,1.7678384767941151427613995342287
458,1.7682786126441911009035990326497
459,1.7687177888308538321494255291388
460,1.7691560095334491030630185855163
461,1.7695932789040979624400145436033
462,1.7700296010679333017575613954507
463,1.7704649801233339357043878383829
464,1.7708994201421543636582630540353
465,1.7713329251699541808076455735952
466,1.7717654992262242695747481357205
467,1.7721971463046090518165384096295
468,1.7726278703731298174042175335524
469,1.7730576753744016058375135461801
470,1.7734865652258511653929037309608
471,1.7739145438199302568713165941735
472,1.7743416150243285995147887437562
473,1.7747677826821818099519107694960
474,1.7751930506122818381224853101397
475,1.7756174226092788228926414496456
476,1.7760409024438868811214109781979
477,1.7764634938630841631301603677400
478,1.7768852005903118505177427191243
479,1.7773060263256709856590250374306
480,1.7777259747461175274204534500966
481,1.7781450495056541839198336044600
482,1.7785632542355225910681844532276
483,1.7789805925443912168412050834709
484,1.7793970680185418109844735580168
485,1.7798126842220558769767989108178
486,1.7802274446969957509927360265897
487,1.7806413529635871365926985417077
488,1.7810544125203976915727949820301
489,1.7814666268445148950186476973373
490,1.7818779993917210575509622483132
491,1.7822885335966676089057214849210
492,1.7826982328730472508937025930477
493,1.7831071006137639506035094418412
494,1.7835151401911018677410874672516
495,1.7839223549568914084519230724053
496,1.7843287482426756498954244434629
497,1.7847343233598728209374280961463
498,1.7851390835999387840575439813405
499,1.7855430322345270156325899388492
500,1.785946172515648214905941295838
501,1.786348507675825287488468708162
502,1.786750040928251158375497086690
503,1.787150775466940882405965884093
504,1.787550714466885895797257165508
505,1.787949861084203256013041121628
506,1.788348218456285599839852568103
507,1.788745789701949667483480243104
508,1.789142577921583032424253319038
509,1.789538586197287267697255823641
510,1.789933817593023601607274571463
511,1.790328275154754293723450971257
512,1.790721961910583631117758699490
513,1.791114880870897160350724549386
514,1.791507035028499831432635520197
515,1.791898427358753427825228254633
516,1.792289060819711492637623319464
517,1.792678938352252825573222571417
518,1.793068062880215335831319136976
519,1.793456437310527032725087453591
520,1.793844064533337010837310678944
521,1.794230947422143224760657761370
522,1.794617088833921329441854527286
523,1.795002491609251023104910994988
