Eigenstate,Potential Energy
1,0.500000000035579033305141465385823409
2,0.64623093788335596219778741752780813
3,0.73633761038716547361139354841816290
4,0.79966527923516144787631391430423202
5,0.8480465777470127229002408753765616
6,0.8870660006789380798555100618266528
7,0.9197208294698362151628558563973807
8,0.9477838504970415948824149146690443
9,0.9723835627670640378937330253470516
10,0.9942802204286250601223494514955761
11,1.0140093936228686693699786214477367
12,1.0319621776545040445463801402976453
13,1.0484327025894033483084125731202204
14,1.0636476661107667163613486210806699
15,1.0777854493333092299884139471810585
16,1.090988921673707359403895480695905
17,1.103374274312104294945922116108724
18,1.115037271198310165197796497979751
19,1.126057772155780242170871587774092
20,1.136503070515551843821731961059818
21,1.146430399197941873130948447889540
22,1.155888841871287235216510527539322
23,1.164920810888469717230676498215181
24,1.173563204687338326753597512121165
25,1.181848324586635827756856060617498
26,1.189804608593586608691635568719549
27,1.197457224366472614598059357239255
28,1.204828552573673264986915018712226
29,1.211938584095617457020592575443129
30,1.218805248866608183709178404203014
31,1.225444690007541796390274367334798
32,1.231871493822644355771783778884297
33,1.238098883923699711500063769000340
34,1.244138885994697683931604407831472
35,1.250002468370635656003169137074037
36,1.255699662570728004494169566340917
37,1.261239667122193251428123373171925
38,1.266630937380370073201753450367179
39,1.271881263553064655503166004644641
40,1.276997838741211098530967857860649
41,1.281987318491176303303729523196905
42,1.286855873099048168344265976761824
43,1.291609233700759581108463824948687
44,1.296252733013806673026618213673664
45,1.300791341458750238031071860999831
46,1.305229699275552931853550408727295
47,1.309572145156328257047215567381712
48,1.313822741838490974443363345190107
49,1.317985299037636037858924850569731
50,1.32206339404535043522018634011604
51,1.32606039027169535679787199625448
52,1.32997945397375089695123732453873
53,1.33382356937916537723447404258334
54,1.33759555238609024726408144472588
55,1.34129806299740602723522373925692
56,1.34493361662707018585105539298084
57,1.34850459439921888231088595698649
58,1.35201325254585731471304682984591
59,1.35546173099621946995373704919309
60,1.35885206123985356250163219170019
61,1.36218617353592522192392288798337
62,1.36546590353292948392652073578403
63,1.36869299835576075065096093806975
64,1.37186912221077740604881495551550
65,1.37499586155396293218195680332950
66,1.37807472986243803324315042579376
67,1.38110717204531598276585899643895
68,1.38409456852613724868381902713154
69,1.38703823902580678017432728718160
70,1.38993944607202907195518172617042
71,1.39279939825863741797439732744945
72,1.39561925327591552405183800121204
73,1.39840012073095664262870934235422
74,1.40114306477528654422797570766957
75,1.40384910655534553912592201386360
76,1.40651922649997520597972685491798
77,1.40915436645775308573795774081618
78,1.41175543169585280098063046195262
79,1.41432329277106024084326565597973
80,1.41685878728263832603487231473040
81,1.41936272151588352698326701823452
82,1.42183587198445585758752095677894
83,1.42427898687887533326768747797423
84,1.42669278742795359028580652986753
85,1.42907796917937008713850189506544
86,1.43143520320508644343208095520742
87,1.43376513723683500085128322806362
88,1.43606839673649431309696303258057
89,1.43834558590578076950656987312543
90,1.44059728863934234034196648330390
91,1.44282406942501897967842853050029
92,1.44502647419474592428948912085026
93,1.44720503112931387186670307452540
94,1.44936025141995709317525157959816
95,1.45149262998951937871730246441048
96,1.45360264617574589835856163392372
97,1.45569076437906471026396287534254
98,1.45775743467704878119352065077904
99,1.45980309340759590802047126339552
100,1.46182816372271758991755300075815
101,1.46383305611469859650293719003018
102,1.46581816891626340251615646857441
103,1.46778388877627774598147641951449
104,1.46973059111240630210591691812164
105,1.47165864054205439140192965376957
106,1.47356839129283087628132316007589
107,1.47546018759369131841142431097134
108,1.47733436404784122957014750306293
109,1.47919124598841065520251078193120
110,1.48103114981784890975600816267989
111,1.48285438333192242167378091364301
112,1.48466124602914921229107838414369
113,1.48645202940644799708633561742431
114,1.48822701724173113998198295084208
115,1.48998648586413024288744950349929
116,1.49173070441249482102862994730058
117,1.49345993508277280160132343436274
118,1.49517443336484055218063968139371
119,1.49687444826931643160195483104984
120,1.49856022254486601379418015659354
121,1.50023199288646886780178935030529
122,1.50188999013509786409925149216418
123,1.50353443946922978436964078116729
124,1.50516556058858833211039943954583
125,1.50678356789049107516622152793702
126,1.50838867063915665399151447988116
127,1.50998107312830801155835744560797
128,1.51156097483738481363617762218400
129,1.51312857058166615493112425909488
130,1.51468405065658626470591500011889
131,1.51622760097651052138286699908239
132,1.51775940320822410843216068074001
133,1.51927963489937386226305784750502
134,1.52078846960209258687749266551539
135,1.52228607699201700170256787667344
136,1.52377262298290680148816534348165
137,1.52524826983705899921261336191028
138,1.52671317627169811094837883735415
139,1.52816749756152063573442622392240
140,1.52961138563755683753351523152663
141,1.53104498918250827886269302597168
142,1.53246845372271148241838997117104
143,1.53388192171686944684799343152870
144,1.53528553264168556318306660774969
145,1.53667942307453029068994145922498
146,1.53806372677326308214293330566504
147,1.53943857475332384555912197443711
148,1.54080409536220927140036165849767
149,1.54216041435143582617409381857746
150,1.54350765494609305328710885246637
151,1.54484593791208309538286720346089
152,1.54617538162113673730817865644775
153,1.54749610211369491937853434114065
154,1.54880821315973962015921703434209
155,1.55011182631765234472975121499983
156,1.55140705099117808476922218284640
157,1.55269399448456579703957484036123
158,1.55397276205595721834213560280471
159,1.5552434569690876897541461504158
160,1.5565061805433653276566550369760
161,1.5577610322023870376462143736319
162,1.5590081095209508324034470861093
163,1.5602475082706193067891794070380
164,1.5614793224638889067349693628206
165,1.5627036443970135921171443493293
166,1.5639205646915334091746138823717
167,1.5651301723345552047616920330124
168,1.5663325547178281713210330589929
169,1.5675277976756592846387497173664
170,1.5687159855217083774693962458557
171,1.5698972010847030434628771309839
172,1.5710715257431112380231847269546
173,1.5722390394588069784011495561799
174,1.5733998208097649865070071801887
175,1.5745539470218182593473758498008
176,1.5757014939995082734111935012325
177,1.5768425363560610835136583624129
178,1.5779771474425184704660866301898
179,1.5791053993760505824891538385941
180,1.5802273630674810167400515674907
181,1.5813431082480469895113665787559
182,1.5824527034954222904586507552880
183,1.5835562162590260701022427752529
184,1.5846537128846417021108607596848
185,1.5857452586383675284619876257813
186,1.5868309177299204560694611594941
187,1.5879107533353162053474557702588
188,1.5889848276189416469961626296747
189,1.5900532017550429580681991024394
190,1.5911159359486452483614455142788
191,1.5921730894559228796577347213778
192,1.5932247206040368599774959620261
193,1.5942708868104576166647159222448
194,1.5953116446017864890506763305951
195,1.5963470496320938730204513743348
196,1.5973771567007877093469538937243
197,1.5984020197700266910776856704465
198,1.5994216919816923519174204429227
199,1.6004362256739328694243775969001
200,1.6014456723972925231829184925778
201,1.6024500829304377843335749341003
202,1.6034495072954934125741357606941
203,1.6044439947729992153155432573691
204,1.6054335939164990838566858191348
205,1.6064183525667722718919436356503
206,1.6073983178657199350508696831553
207,1.6083735362699128020976387785914
208,1.6093440535638141991970864805245
209,1.6103099148726841700773589079191
210,1.6112711646751761876903715980510
211,1.6122278468156338163289319816534
212,1.6131800045160975513247931812605
213,1.6141276803880262142182907403591
214,1.6150709164437478790851444886771
215,1.6160097541076395362477888760014
216,1.6169442342270494478240859353665
217,1.6178743970829661541513618094455
218,1.6188002824004431035311280259367
219,1.6197219293587821782259674722354
220,1.6206393766014886248317224037509
221,1.6215526622459952913100396010888
222,1.6224618238931733680421155575515
223,1.6233668986366231937298686258051
224,1.6242679230717601854378004720534
225,1.6251649333046984493132508307959
226,1.6260579649609356099205486783858
227,1.6269470531938475010306385441547
228,1.6278322326929945280603883446466
229,1.6287135376922468542994922211626
230,1.6295910019777330971566091409370
231,1.6304646588956143236817020707010
232,1.6313345413596937542724116333017
233,1.6322006818588571600553125334762
234,1.6330631124643600999947897104419
235,1.6339218648369551688157928723177
236,1.6347769702338689544950993403017
237,1.6356284595156323254341892815111
238,1.6364763631527657783106221125313
239,1.6373207112323252821728918589798
240,1.6381615334643107721814008548240
241,1.6389988591879415743279195579743
242,1.6398327173778016170680557949695
243,1.6406631366498584606237152430438
244,1.6414901452673578321745587472910
245,1.6423137711465980400328433965418
246,1.6431340418625867853519013122741
247,1.6439509846545817531361589180757
248,1.6447646264315225630897675895765
249,1.6455749937773490488013597074906
250,1.6463821129562162493682397480533
251,1.6471860099176040128690429642546
252,1.6479867103013240095821356638897
253,1.6487842394424292265500092287701
254,1.6495786223760255997444500732613
255,1.6503698838419896632587076930097
256,1.6511580482895923002912110865553
257,1.6519431398820349866622361104452
258,1.6527251825008949709198661860532
259,1.6535041997504861938829232451218
260,1.6542802149621363333228714227832
261,1.6550532511983802868393727969507
262,1.6558233312570748176588408828794
263,1.6565904776754332132402368574580
264,1.6573547127339854068437490557614
265,1.6581160584604620865921224614082
266,1.6588745366336049590594316783763
267,1.6596301687869063799215434410689
268,1.6603829762122783846699009381244
269,1.6611329799636553885897681822168
270,1.6618802008605262794298229918000
271,1.6626246594914051860017641407340
272,1.6633663762172349015561317949856
273,1.6641053711747304043310207217998
274,1.6648416642796596835734421690543
275,1.6655752752300657458944730741929
276,1.6663062235094280795929983983053
277,1.6670345283897710602434715923131
278,1.6677602089347110514776140995489
279,1.6684832840024537034100657040609
280,1.6692037722487335415601784020217
281,1.6699216921297037350784868484990
282,1.6706370619047735405324559005521
283,1.6713498996393966336835463884370
284,1.6720602232078074857768676320469
285,1.6727680502957125915904107898084
286,1.6734733984029325739746569402359
287,1.6741762848460002241605464253441
288,1.6748767267607108795975056971538
289,1.6755747411046297873722216653418
290,1.6762703446595571857217815350277
291,1.6769635540339489445678844220018
292,1.6776543856652956499651009113050
293,1.6783428558224640382240736214048
294,1.6790289806079958166112595846782
295,1.6797127759603659577561930561279
296,1.6803942576562080533131829876811
297,1.6810734413124966585890941311274
298,1.6817503423886959448748138927968
299,1.6824249761888714623231068228567
300,1.6830973578637667639626655613121
301,1.6837675024128453022703915751302
302,1.6844354246862996912191770885012
303,1.6851011393870255069146234278323
304,1.6857646610725632043342459443287
305,1.6864260041570095786806700179139
306,1.6870851829128980345526731696011
307,1.6877422114730448448927236652827
308,1.6883971038323688781437438588156
309,1.6890498738496808828859458115452
310,1.6897005352494426651046241328563
311,1.6903491016234997529967503823065
312,1.6909955864327850624546623234740
313,1.6916400030089949559797407421451
314,1.6922823645562394993059850306074
315,1.6929226841526662353813357662561
316,1.6935609747520588513546026623074
317,1.6941972491854082771783489443876
318,1.6948315201624615670788201950127
319,1.6954638002732457054603177669133
320,1.6960941019895663385086769368667
321,1.6967224376664853504337794142967
322,1.6973488195437733987887564158728
323,1.6979732597473409229107643360930
324,1.6985957702906466026299075035705
325,1.6992163630760850292333988104231
326,1.6998350498963518259182079578832
327,1.7004518424357890384944413157738
328,1.7010667522717079855410239795902
329,1.7016797908756945428788238531913
330,1.7022909696148932940346569443438
331,1.7029002997532719852791497280642
332,1.7035077924528673464698755760532
333,1.7041134587750126562447519551560
334,1.7047173096815452355785172547378
335,1.7053193560359981846245639256808
336,1.7059196086047724208835387123523
337,1.7065180780582918909346530983048
338,1.7071147749721430145713392340866
339,1.7077097098281944258384615203432
340,1.7083028930157031023015732181188
341,1.7088943348324025961162744604242
342,1.7094840454855758640371106307020
343,1.7100720350931123341460957282506
344,1.7106583136845492029982797936580
345,1.7112428912020987825099021915711
346,1.7118257775016593713741596534210
347,1.7124069823538132163549669625233
348,1.7129865154448083751738263424510
349,1.7135643863775280259055638644647
350,1.7141406046724447652155459581857
351,1.7147151797685619830336364845036
352,1.7152881210243419960225877890779
353,1.7158594377186202242114028499186
354,1.7164291390515068252630009342599
355,1.7169972341452761516531560920662
356,1.7175637320452422405428034392037
357,1.7181286417206235753826687567330
358,1.7186919720653963632513177009481
359,1.7192537318991320730666215939433
360,1.7198139299678281725911404172094
361,1.7203725749447238091017418293229
362,1.7209296754311069153263707676323
363,1.7214852399571073362631903215086
364,1.7220392769824810008794654660762
365,1.7225917948973833750613291434034
366,1.7231428020231310734875913323150
367,1.7236923066129545224430536728234
368,1.7242403168527384623057233743650
369,1.7247868408617549222585933325332
370,1.7253318866933843804076776661275
371,1.7258754623358279626224357983293
372,1.7264175757128096365842577502051
373,1.7269582346842683677668668918990
374,1.7274974470470445458356163252244
375,1.7280352205355513730435400872711
376,1.7285715628224426708487746304444
377,1.7291064815192688939729700645970
378,1.7296399841771245193207433033129
379,1.7301720782872886495715596544859
380,1.7307027712818555882186028382852
381,1.7312320705343582615003288136701
382,1.7317599833603816054046992444408
383,1.7322865170181705924179209866921
384,1.7328116787092278617291419512105
385,1.7333354755789045741562142349718
386,1.7338579147169851504556117010532
387,1.7343790031582616423630673092360
388,1.7348987478831016731732192556325
389,1.7354171558180106225531121111667
390,1.7359342338361852447048064189659
391,1.7364499887580590368261629429492
392,1.7369644273518429662558473691098
393,1.7374775563340590297962754204130
394,1.7379893823700652263208409355048
395,1.7384999120745747995448297930607
396,1.7390091520121694018373598594293
397,1.7395171086978058089888310333181
398,1.7400237885973161940782941021540
399,1.7405291981279005262390229390119
400,1.7410333436586153942896354580801
401,1.7415362315108553041587575960886
402,1.7420378679588271953289428210036
403,1.7425382592300209970488372089889
404,1.7430374115056741174134908697589
405,1.7435353309212273307669978476070
406,1.7440320235667781724731895437722
407,1.7445274954875289577840682696923
408,1.7450217526842269280115360860063
409,1.7455148011135993850900471622595
410,1.7460066466887863290204661856153
411,1.7464972952797648582246960255204
412,1.7469867527137689154125798823473
413,1.7474750247757054580334365142294
414,1.7479621172085634771707465052985
415,1.7484480357138201488559913613789
416,1.7489327859518405474483319232468
417,1.7494163735422737695814499669037
418,1.7498988040644426319286499478030
419,1.7503800830577312213130904842609
420,1.7508602160219652791007280713747
421,1.7513392084177893720756436272402
422,1.7518170656670401314174994286748
423,1.7522937931531133959371072292960
424,1.7527693962213288733130004741178
425,1.7532438801792886987063497555775
426,1.7537172502972334976116941392598
427,1.7541895118083934375923428672180
428,1.7546606699093342826060237139900
429,1.7551307297603023623269951129036
430,1.7555996964855613185895571454172
431,1.7560675751737281326256979604225
432,1.7565343708781055826310546881182
433,1.7570000886170064695751931402190
434,1.7574647333740807092134105266360
435,1.7579283100986331139937957575452
436,1.7583908237059397658707731001829
437,1.7588522790775611414139989079564
438,1.7593126810616509712984173234141
439,1.7597720344732615155001973624303
440,1.7602303440946463254331833976381
441,1.7606876146755576528998239842418
442,1.7611438509335420695246879424519
443,1.7615990575542339443875642552268
444,1.7620532391916413992497573581969
445,1.7625064004684340720536561536540
446,1.7629585459762237130684246090279
447,1.7634096802758447828728633791115
448,1.7638598078976282704006150157101
449,1.7643089333416765715754988375040
450,1.7647570610781315810014243872561
451,1.7652041955474434998274486887550
452,1.7656503411606332011590241581015
453,1.7660955022995538961133657466744
454,1.7665396833171484894925606884101
455,1.7669828885377062489733744975122
456,1.7674251222571140848392828608493
457,1.7678663887431071359873083100488
458,1.7683066922355150581356021227543
459,1.7687460369465065281824374954289
460,1.7691844270608316070893681073824
461,1.7696218667360598110424617457668
462,1.7700583601028171039697774409159
463,1.7704939112650204152188076970378
464,1.7709285243001078433283887083666
465,1.7713622032592685146630535904372
466,1.7717949521676692276390814527150
467,1.7722267750246771630908116008104
468,1.7726576758040836764505928681928
469,1.7730876584543216484764229301765
470,1.7735167268986839190987170601802
471,1.7739448850355370715323307234765
472,1.7743721367385348643002848761923
473,1.7747984858568266621091416414596
474,1.7752239362152683696066094773592
475,1.7756484916146247908173213993512
476,1.7760721558317759280989306858397
477,1.7764949326199175536558900283106
478,1.7769168257087607296412377665978
479,1.7773378388047291662694170915020
480,1.7777579755911548125655268302491
481,1.7781772397284702306668145808670
482,1.7785956348544013225072690565235
483,1.7790131645841557889272136244358
484,1.7794298325106101410046308744573
485,1.7798456422044967405328060007282
486,1.7802605972145854544796505894445
487,1.7806747010678667722603043648018
488,1.7810879572697309823546903843112
489,1.7815003693041466364179879150787
490,1.7819119406338361639766286758822
491,1.7823226747004507719590862209601
492,1.7827325749247432172149626578236
493,1.7831416447067384269959174423414
494,1.7835498874259030614039212255706
495,1.7839573064413122102664332494522
496,1.7843639050918164688246714407944
497,1.7847696866962050777166196346095
498,1.7851746545533690724735039936506
499,1.7855788119424619398107120504186
500,1.785982162123059911147181138884
501,1.786384708335317639325134708563
502,1.786786453800126713641625153156
503,1.787187401719268481249459958996
504,1.787587555275569018691045742035
505,1.787986917633049100959003023272
506,1.788385491937074898095101259207
507,1.788783281314507247277694522163
508,1.789180288873849140278244333563
509,1.789576517705389657097648830710
510,1.789971970881350398936009342616
511,1.790366651456027651493810767159
512,1.790760562465934178716354676544
513,1.791153706929939262640143947347
514,1.791546087849407665727692949935
515,1.791937708208337889912628450746
516,1.792328570973497942673417111525
517,1.792718679094559684855267970155
518,1.793108035504233545614427964287
519,1.793496643118400386415122555914
520,1.793884504836243371075397353085
521,1.794271623540376637086451282468
522,1.794658002096975044403049355412
523,1.795043643355901438864568789918
