Eigenstate,Potential Energy
1,0.500000002955259126310778223311830522
2,0.64623095694277096428596545542862108
3,0.73633766637842937043358895794153428
4,0.79966539587504086062204491441208985
5,0.8480467798275170937906555879921463
6,0.8870663134490465148464301174820538
7,0.9197212784115135627552317515280066
8,0.9477844612353710006495020268146345
9,0.9723843610317273868519954511907495
10,0.9942812320373796653819597182893388
11,1.0140106444753977209613793321930788
12,1.0319636937315730339352563662032232
13,1.0484345099549254097379508144125889
14,1.0636497909155629671274510102359657
15,1.0777879178199131125154156699924508
16,1.090991760181846692623034541054073
17,1.103377509284646522069714138687138
18,1.115040929187540990344192848661577
19,1.126061879829935057039098449114868
20,1.136507654665548967406532264851278
21,1.146435486744285034959368542844335
22,1.155894459871116505683758690281633
23,1.164926986542747820443865687555603
24,1.173569965348164476256157985616527
25,1.181855697764682813076872685976434
26,1.189812621965659391005589555408873
27,1.197465905783188516036893816403904
28,1.204837930067265185554115965154759
29,1.211948685887862574971032309041229
30,1.218816103376885389294975158795005
31,1.225456325861021742915544869914968
32,1.231883939858616532727108459544761
33,1.238112169204041384990504943506487
34,1.244153039812489933005525897107234
35,1.250017520258932076676033578137568
36,1.255715642311481968536823472889055
37,1.261256604755349903510341531141423
38,1.266648863213129534603589074840880
39,1.271900208169323180605470576885022
40,1.277017833011187205747069204963428
41,1.282008393581229178259564877551523
42,1.286878060481695916568469289685422
43,1.291632565164905192416121959776176
44,1.296277240675179851982666126247472
45,1.300817057770573555948365126933690
46,1.305256657039441067110494296114180
47,1.309600377533429413364246682409114
48,1.313852282360879902328681778387447
49,1.318016181619968433833705728613449
50,1.32209565299678885775567960453637
51,1.32609406030811717821586482931998
52,1.33001457023024920792263010972503
53,1.33386016742285417603982738484826
54,1.33763366822922568077983722664213
55,1.34133773311083590579729118830758
56,1.34497487795402447093170548248603
57,1.34854748436945434552301857843868
58,1.35205780909017009037615651712262
59,1.35550799256133977258835532587503
60,1.35890006680373741666102547155106
61,1.36223596262345865619088793763972
62,1.36551751623206127527260321564495
63,1.36874647533408047137815185717131
64,1.37192450473255622496448245615806
65,1.37505319149767535639041407970565
66,1.37813404973878354895740831303061
67,1.38116852501576036497480974280554
68,1.38415799842199416260786438437317
69,1.38710379036788119461631529170469
70,1.39000716409084494838407744913232
71,1.39286932891527313230291876715278
72,1.39569144328347152332012794418599
73,1.39847461757668093941250148119936
74,1.40121991674338481070761977253754
75,1.40392836275050378397437102235603
76,1.40660093687162430421450692811060
77,1.40923858182510578848801821883884
78,1.41184220377374528294868360044267
79,1.41441267419663175267122305134069
80,1.41695083164288411166980174780367
81,1.41945748337611784769517633665440
82,1.42193340691772374006592151414461
83,1.42437935149635353520549423419197
84,1.42679603941038325939870260141208
85,1.42918416730956568555399886536911
86,1.43154440740156772608565098836193
87,1.43387740858863118191013194183620
88,1.43618379753917203684570992161032
89,1.43846417969875013070673653400448
90,1.44071914024449798355158775315905
91,1.44294924498677625785907627037252
92,1.44515504122153522550110654761908
93,1.44733705853659954109632060713371
94,1.44949580957485089740689841102083
95,1.45163179075706220131980977717811
96,1.45374548296693531884811288853568
97,1.45583735220071034395163124058279
98,1.45790785018354173767385704291506
99,1.45995741495468349709782144594641
100,1.46198647142337947886495097136744
101,1.46399543189722602588693263685754
102,1.46598469658464882323419937701047
103,1.46795465407302837374209866459728
104,1.46990568178390162560774206106411
105,1.47183814640657464755722549054670
106,1.47375240431139095322649648860202
107,1.47564880194382250082137369916937
108,1.47752767620047170009250856610781
109,1.47938935478800475332419964019449
110,1.48123415656597487136581574862962
111,1.48306239187442872951025517076634
112,1.48487436284714083421964864868315
113,1.48667036371126573578168087072702
114,1.48845068107415012937796357408057
115,1.49021559419800737512572413925211
116,1.49196537526310965063121725664306
117,1.49370028962012233654232997647747
118,1.49542059603216539785393844812538
119,1.49712654690715410576615876438035
120,1.49881838852094701061930550163994
121,1.50049636123179234043278789300915
122,1.50216069968654675291368325174985
123,1.50381163301910999128934780006921
124,1.50544938504150329359711730670057
125,1.50707417442799199844169800771718
126,1.50868621489263995149139915662304
127,1.51028571536066531731343460233810
128,1.51187288013394763492899193547024
129,1.51344790905102697158769470427928
130,1.51501099764192103410736850808112
131,1.51656233727807440923939887730762
132,1.51810211531774320923675475632991
133,1.51963051524711110538588785239774
134,1.52114771681742639659664744091752
135,1.52265389617843709520324459639896
136,1.52414922600840332914538035145490
137,1.52563387564095968298969269133769
138,1.52710801118909381944637799228175
139,1.52857179566651373235127021836008
140,1.53002538910666952955356816023792
141,1.53146894867970106598155651125945
142,1.53290262880758576108029320599327
143,1.53432658127776461878142737839595
144,1.53574095535553102804593489916848
145,1.53714589789547806009608544306355
146,1.53854155345230922945135884340497
147,1.53992806439132863323049805067960
148,1.54130557099894887944110195788593
149,1.54267421159356575802075051650462
150,1.54403412263717749806166013463434
151,1.54538543884814917335106696632193
152,1.54672829331555152704174202657565
153,1.54806281761554089834462056218927
154,1.54938914193028573348219746450873
155,1.55070739516998919443814270597758
156,1.55201770509861343202709995806819
157,1.55332019846396845352952040142017
158,1.55461500113290244176167729641099
159,1.5559022382324057866638438343145
160,1.5571820342975393751574082851701
161,1.5584545134271995137911332539013
162,1.5597197994488588886759298146115
163,1.5609780160935636029977337755925
164,1.5622292871826338543970327967397
165,1.5634737368277039717061101783860
166,1.5647114896459648399887916669313
167,1.5659426709927307570380766330806
168,1.5671674072137542988318390884786
169,1.5683858259200733228660798233294
170,1.5695980562885893012857525113959
171,1.5708042293920715221366354869775
172,1.5720044785628638386732446617406
173,1.5731989397952607188481364119047
174,1.5743877521923431964607980413835
175,1.5755710584640459901097232299566
176,1.5767490054843995443006039446959
177,1.5779217449173092132356062529023
178,1.5790894339219378902084575506476
179,1.5802522359508267192543431652432
180,1.5814103216564152139110437227141
181,1.5825638699246997772574712539542
182,1.5837130690585689675796269722869
183,1.5848581181380384829441458368672
184,1.5859992285904368015271135804254
185,1.5871366260108715255001031430745
186,1.5882705522824599743199184460446
187,1.5894012680573924350619294259616
188,1.5905290556746402740521662967809
189,1.5916542226090534159757767988692
190,1.5927771055710430458156785610546
191,1.5938980754079175367560804892728
192,1.5950175429998151550728459048738
193,1.5961359663987156237953996673772
194,1.5972538595333795123120963794644
195,1.5983718029037125360732617625340
196,1.5994904568257858751380640437020
197,1.6006105779795534191477587706013
198,1.6017330402791317030148092838755
199,1.6028588614668349635496730123469
200,1.6039892373835951327121120374857
201,1.6051255866794923515265752566585
202,1.6062696099436408789622556205528
203,1.6074233690921847026825780677119
204,1.6085893957636756494010905947311
205,1.6097708421444871937751289112133
206,1.6109716953694184383481452454623
207,1.6121970898253396811512499588798
208,1.6134537750411793423395559996265
209,1.6147508400396321070566673596485
210,1.6161008790101901367395145847341
211,1.6175219564706820098090438745714
212,1.6190411143379096266459319069120
213,1.6207010942593668785323101958845
214,1.6225744730315621130815754847282
215,1.6247973563331410228189658268602
216,1.6276656299413248915750030387942
217,1.6320025583323392712947655028782
218,1.6416638165849318575258114064304
