Eigenstate,Potential Energy
1,0.500000000026144516990154734506405272
2,0.64623093782177232076249161953392187
3,0.73633761020626833366435403371047059
4,0.79966527885837289741611793716006117
5,0.8480465770943368255659185428970948
6,0.8870659996689782275997398457697657
7,0.9197208280205384555159837783884083
8,0.9477838485260046541495871418557879
9,0.9723835601916835052094086018796651
10,0.9942802171661665883961994091675695
11,1.0140093895905077606025273993435735
12,1.0319621727693488070217816167094562
13,1.0484326967685079835876639004269944
14,1.0636476592711396712338561298411821
15,1.0777854413919181298640100417089967
16,1.090988912547481919930432799885719
17,1.103374263917937918450008071808169
18,1.115037259453060655092373039756223
19,1.126057758976269909722411364558786
20,1.136503055818567186217300407748599
21,1.146430382900232942579805779286969
22,1.155888823889566781065687222451345
23,1.164920791139412158391648456795012
24,1.173563183087578595235839531568288
25,1.181848301052768112846127796212641
26,1.189804583042163023487360551009163
27,1.197457196714001801095118000557221
28,1.204828522736618949918997097444244
29,1.211938551990396967793684234548574
30,1.218805214409590931623434750469224
31,1.225444653115047732758313234969853
32,1.231871454410942405341043411180951
33,1.238098841909006186671244142714985
34,1.244138841293174682560001982045260
35,1.250002420898389445021609817963911
36,1.255699612243807391166648543748777
37,1.261239613856587943703806143130116
38,1.266630881092009030368809405785895
39,1.271881204157814430125306195741691
40,1.276997776154874170474751934646306
41,1.281987252629489406522777655248889
42,1.286855803877680610970539842703050
43,1.291609161035311559305517321884777
44,1.296252656819807578981035502907776
45,1.300791261651656962392982431941421
46,1.305229615770748160882610738582082
47,1.309572057869118764674768699704423
48,1.313822650684105909423024446761974
49,1.317985203931225206145326477901675
50,1.32206329490198257768801085381302
51,1.32606028700635642238975106289884
52,1.32997934650134231132295943307743
53,1.33382345761450230694865396677382
54,1.33759543624389985956851321791572
55,1.34129794239232574544924480653079
56,1.34493349147364594037204106945621
57,1.34850446461190335724325515592345
58,1.35201311803900819011358199920069
59,1.35546159168409765967959901182868
60,1.35885191703662144764082818053466
61,1.36218602435564487978219989690338
62,1.36546574928956091253948628597335
63,1.36869283896316008878567536571845
64,1.37186895758269514865503471687818
65,1.37499569160404214124954244311433
66,1.37807455450421254401888583197514
67,1.38110699119220860527999179242871
68,1.38409438209145796453397700580293
69,1.38703804692275093451201192090323
70,1.38993924821367556061791734263909
71,1.39279919455794686970452978570039
72,1.39561904364572847774121313369801
73,1.39839990508399171952672206221142
74,1.40114284302413861504895849079011
75,1.40384887861248388599035534663838
76,1.40651899227774167912247362584143
77,1.40915412586836025491542117774221
78,1.41175518465138210150758054544294
79,1.41432303918346011418896509714247
80,1.41685852706372235490713027260766
81,1.41936245457732856482801105764452
82,1.42183559823780015243057676500050
83,1.42427870623551664582454604779367
84,1.42669249979914730626431626579232
85,1.42907767447622732365857932912417
86,1.43143490133857214948578188015107
87,1.43376482811776605172575316648675
88,1.43606808027553759868209076186655
89,1.43834526201345127640843245473726
90,1.44059695722600122772243871246815
91,1.44282373040087164874065001289738
92,1.44502612746984008132821924425282
93,1.44720467661353758480190213756369
94,1.44935988902303684148659538167728
95,1.45149225962101809669668255874761
96,1.45360226774506101159700750483411
97,1.45569037779542616528873821440761
98,1.45775703984951706817059328862367
99,1.45980269024506007643685922651721
100,1.46182775213389325715749006241579
101,1.46383263600812594923113442607662
102,1.46581774020030519078085410030272
103,1.46778345135911726994936318825123
104,1.46973014490204539134032569702567
105,1.47165818544631137659518713153576
106,1.47356792721933855335143283296224
107,1.47545971444989490487269200064618
108,1.47733388174099631308672076769536
109,1.47919075442558113423316601014770
110,1.48103064890590492619790584745090
111,1.48285387297753828541228447140137
112,1.48466072613880131756206300428809
113,1.48645149988641273055682375265274
114,1.48822647799808278045425109747862
115,1.48998593680273885253112079957262
116,1.49173014543902412804462357708761
117,1.49345936610267807422086346136903
118,1.49517385428336646390183899319659
119,1.49687385899149491756587532723984
120,1.49855962297551411820152774360083
121,1.50023138293018658227074483009594
122,1.50188936969626595686428596175294
123,1.50353380845200762022039052514641
124,1.50516491889691168296904165233265
125,1.50678291542806992120108403739535
126,1.50838800730947297516384976834810
127,1.50998039883461356949859293096109
128,1.51156028948269892374514148748320
129,1.51312787406877344860103888238316
130,1.51468334288803444155521792020906
131,1.51622688185460809139818283264963
132,1.51775867263503812390984488047862
133,1.51927889277672763944218813289834
134,1.52078771583156341715521067412832
135,1.52228531147493385232194069435217
136,1.52377184562034800558801862554064
137,1.52524748052984993512785127539311
138,1.52671237492040887064860774171007
139,1.52816668406646368228780569668927
140,1.52961055989878465148190087971479
141,1.53104415109981099339340593355311
142,1.53246760319561450721700487831475
143,1.53388105864463108051567082066100
144,1.53528465692329459410110474644462
145,1.53667853460870358621341653444547
146,1.53806282545844316600426108142372
147,1.53943766048767646336156186050102
148,1.54080316804362094408061503370208
149,1.54215947387751139131206745600424
150,1.54350670121415319414019967815669
151,1.54484497081916185752098644522005
152,1.54617440106397903272488249183383
153,1.54749510798875401795264611459611
154,1.54880720536317462834035868456351
155,1.55011080474532567132021103318067
156,1.55140601553865289367350272181335
157,1.55269294504710344685216171173121
158,1.55397169852851468864276351646697
159,1.5552423792463149939790140096968
160,1.5565050885196029124128203785198
161,1.5577599257716631683355116548661
162,1.5590069885769789650210424001398
163,1.5602463727067954457609773143653
164,1.5614781721732889486567931515443
165,1.5627024792723906552576449002693
166,1.5639193846253151486027355502337
167,1.5651289772188411129583306621451
168,1.5663313444443868641334047432131
169,1.5675265721359257724349080395440
170,1.5687147446067813213489923632586
171,1.5698959446853419963792864301316
172,1.5710702537497338706707589665889
173,1.5722377517614862897202203784538
174,1.5733985172982264986580611610826
175,1.5745526275854371970045417426048
176,1.5757001585273067272239001376392
177,1.5768411847367051575841587584577
178,1.5779757795643154136891914645882
179,1.5791040151269459035992204991916
180,1.5802259623350555829089904046740
181,1.5813416909195141083400793161823
182,1.5824512694576247752030125827531
183,1.5835547653984332879733418732562
184,1.5846522450873466054878977693751
185,1.5857437737900836688547150588792
186,1.5868294157159789806659003078017
187,1.5879092340406628359808792646474
188,1.5889832909281336413641817017255
189,1.5900516475522460530351874905803
190,1.5911143641176305851740977757261
191,1.5921714998800639109021219696045
192,1.5932231131663062381044171705538
193,1.5942692613934240639086228861891
194,1.5953100010876116485659923364218
195,1.5963453879025291410575061812754
196,1.5973754766371710482881124405494
197,1.5984003212532794231528240690790
198,1.5994199748923159334161340776733
199,1.6004344898920056452207707822210
200,1.6014439178024664613871656716031
201,1.6024483094019351908828087940957
202,1.6034477147121036255734073278441
203,1.6044421830130752789381117257214
204,1.6054317628579544016109626714073
205,1.6064165020870772390608423070768
206,1.6073964478418985501074756116813
207,1.6083716465785392568992747815023
208,1.6093421440810094477582199513556
209,1.6103079854741124757197797916116
210,1.6112692152360416483673461978822
211,1.6122258772106768679181521028790
212,1.6131780146195914486831275315954
213,1.6141256700737734897892097740523
214,1.6150688855850767788480394547988
215,1.6160077025774004327962767781356
216,1.6169421618976112303585034796231
217,1.6178723038262125951685850798724
218,1.6187981680877692019929078473435
219,1.6197197938610904789849186348484
220,1.6206372197891855140919484401131
221,1.6215504839889872678974157680380
222,1.6224596240608632902570736459387
223,1.6233646770979065015533324667354
224,1.6242656796950210978589114116008
225,1.6251626679578061365451445372349
226,1.6260556775112403402684166928693
227,1.6269447435081767621739563005623
228,1.6278299006376491225088413100146
229,1.6287111831329969687801629132559
230,1.6295886247798143456872598036767
231,1.6304622589237237640829398971561
232,1.6313321184779858778690171797650
233,1.6321982359309398543146730085116
234,1.6330606433532905838478852796965
235,1.6339193724052359004037710442120
236,1.6347744543434435110819907854619
237,1.6356259200278812552238280380824
238,1.6364737999285024239031190352831
239,1.6373181241317915753938760036326
240,1.6381589223471730000139617797023
241,1.6389962239132861156751346459134
242,1.6398300578041306500710981280347
243,1.6406604526350856402577500524321
244,1.6414874366688039378422323436616
245,1.6423110378209865928719867108524
246,1.6431312836660396349714666205764
247,1.6439482014426146334917615892680
248,1.6447618180590406172069748106134
249,1.6455721600986423220523827281699
250,1.6463792538249551510043669249440
251,1.6471831251868347455085040484697
252,1.6479837998234639663498462822324
253,1.6487813030692623555629438785327
254,1.6495756599586977356328063155169
255,1.6503668952310038254104652026612
256,1.6511550333348039575041293450327
257,1.6519400984326472878844373522184
258,1.6527221144054539417567215623797
259,1.6535011048568758985449537120375
260,1.6542770931175740016858560878659
261,1.6550501022494114062845235312632
262,1.6558201550495681893575630558671
263,1.6565872740545759725448861945160
264,1.6573514815442780074417610980426
265,1.6581127995457132480779473855733
266,1.6588712498369265775746641311628
267,1.6596268539507084015106056111179
268,1.6603796331782636409945037589347
269,1.6611296085728143946419731402609
270,1.6618768009531319928798721312324
271,1.6626212309070077278128419972611
272,1.6633629187946562374945905686217
273,1.6641018847520589869967777499457
274,1.6648381486942450545711981452644
275,1.6655717303185130977626836102570
276,1.6663026491075927771033168882526
277,1.6670309243327531206794529243297
278,1.6677565750568495834973411424461
279,1.6684796201373213040934082496009
280,1.6692000782291306512367647459305
281,1.6699179677876529495287788118982
282,1.6706333070715138801494974012719
283,1.6713461141453777691790495328016
284,1.6720564068826839200105781345361
285,1.6727642029683377970975028803115
286,1.6734695199013530857612191745590
287,1.6741723749974496873325476575297
288,1.6748727853916040513844221385949
289,1.6755707680405564931013916005946
290,1.6762663397252762282951259883896
291,1.6769595170533819669876923757540
292,1.6776503164615209504506168375040
293,1.6783387542177103374560284033416
294,1.6790248464236359766362090335600
295,1.6797086090169106520775677468222
296,1.6803900577732993876910458839302
297,1.6810692083089017420651238491770
298,1.6817460760823004105341616163980
299,1.6824206763966729372990809531351
300,1.6830930244018682881851620990978
301,1.6837631350964486954533972815672
302,1.6844310233296988675772894277971
303,1.6850967038035997370928591010998
304,1.6857601910747703240298410952513
305,1.6864214995563791434298107068303
306,1.6870806435200244201494343953324
307,1.6877376370975802929014806586629
308,1.6883924942830164859605665112845
309,1.6890452289341875377983592594978
310,1.6896958547745919217930838291143
311,1.6903443853951046539152243238709
312,1.6909908342556809005208737392871
313,1.6916352146870319790002073421712
314,1.6922775398922755555538655658166
315,1.6929178229485593597388347841081
316,1.6935560768086597914254259432270
317,1.6941923143025529587686919307393
318,1.6948265481389634984386823858832
319,1.6954587909068883196703879595855
320,1.6960890550770952733907926028391
321,1.6967173530036006653563826642267
322,1.6973436969251217277312196993408
323,1.6979680989665075631437358269855
324,1.6985905711401475383612388293442
325,1.6992111253473588895619959440267
326,1.6998297733797517764308027850902
327,1.7004465269205746058324864598746
328,1.7010613975460368142574891009403
329,1.7016743967266140838968277661318
330,1.7022855358283324240118642647794
331,1.7028948261140325561744200634440
332,1.7035022787446156646000076327532
333,1.7041079047802708901114405171819
334,1.7047117151816827517369593917964
335,1.7053137208112228108572608345015
336,1.7059139324341216359340936577366
337,1.7065123607196239400475618385376
338,1.7071090162421279500755913629228
339,1.7077039094823050720034677215476
340,1.7082970508282059436852839287843
341,1.7088884505763485886160382619483
342,1.7094781189327911678449265998907
343,1.7100660660141889678004180626530
344,1.7106523018488356177152551283526
345,1.7112368363776903559670125360871
346,1.7118196794553888201102942951890
347,1.7124008408512409259402355196293
348,1.7129803302502126472931796469225
349,1.7135581572538952414898557266078
350,1.7141343313814594627436248540824
351,1.7147088620705968511187454974167
352,1.7152817586784477793855728673621
353,1.7158530304825155421330056683567
354,1.7164226866815679015965134558426
355,1.7169907363965264554676622279998
356,1.7175571886713420364566586133275
357,1.7181220524738593826350431540496
358,1.7186853366966703225488335182779
359,1.7192470501579512202301722687158
360,1.7198072016022936180163024191649
361,1.7203657997015198220348901104897
362,1.7209228530554899119458158380696
363,1.7214783701928947705432862466798
364,1.7220323595720401572026686645840
365,1.7225848295816200615310651060665
366,1.7231357885414782148817744274269
367,1.7236852447033606517359191218185
368,1.7242332062516561096716256212394
369,1.7247796813041289004592544457583
370,1.7253246779126399654503186905804
371,1.7258682040638589685625778377681
372,1.7264102676799663833339001859138
373,1.7269508766193455407540346169100
374,1.7274900386772689463475952551350
375,1.7280277615865695580715831576904
376,1.7285640530183084812378510804964
377,1.7290989205824308696645476991782
378,1.7296323718284132004626048051549
379,1.7301644142459037622529600351816
380,1.7306950552653531135738437838149
381,1.7312243022586373869082732412236
382,1.7317521625396715564955371276145
383,1.7322786433650173445832876487986
384,1.7328037519344807298143486971087
385,1.7333274953917026789980147682786
386,1.7338498808247437609111446672185
387,1.7343709152666583914594063152406
388,1.7348906056960626469891369954071
389,1.7354089590376963204278148527935
390,1.7359259821629764093503302504645
391,1.7364416818905423529022506212173
392,1.7369560649867966259476928194691
393,1.7374691381664381639175346856217
394,1.7379809080929871994449472846650
395,1.7384913813793043676493605173125
396,1.7390005645881037309260057453555
397,1.7395084642324593531368624600932
398,1.7400150867763054313269824741609
399,1.7405204386349285507445081565010
400,1.7410245261754563631114132702010
401,1.7415273557173387370517312495650
402,1.7420289335328221258827999363796
403,1.7425292658474199734965472789887
404,1.7430283588403770514089346680146
405,1.7435262186451251924104374342728
406,1.7440228513497365298402730297673
407,1.7445182629973713591921244823440
408,1.7450124595867181252332138929617
409,1.7455054470724283957017670253928
410,1.7459972313655493360490346197344
411,1.7464878183339479452315816009506
412,1.7469772138027306351311497269372
413,1.7474654235546592326494994321864
414,1.7479524533305598283118743645478
415,1.7484383088297287553294523740747
416,1.7489229957103321287418713571745
417,1.7494065195898017931148628958512
418,1.7498888860452248420171708196584
419,1.7503701006137309877771904242094
420,1.7508501687928727634288758699655
421,1.7513290960410025090194374541117
422,1.7518068877776454238695186337290
423,1.7522835493838665209138968219966
424,1.7527590862026350968362228797073
425,1.7532335035391830973450841931124
426,1.7537068066613609844200301864714
427,1.7541790007999885901447009719497
428,1.7546500911492009708024285374715
429,1.7551200828667931736090687950328
430,1.7555889810745567781756782712653
431,1.7560567908586157163423826313656
432,1.7565235172697585198833587355277
433,1.7569891653237623339669454914516
434,1.7574537400017197942931094608086
435,1.7579172462503565915683039565367
436,1.7583796889823476242937072914793
437,1.7588410730766299012203146883206
438,1.7593014033787111755205517108445
439,1.7597606847009749919646639025819
440,1.7602189218229832182992067578526
441,1.7606761194917732206640024130999
442,1.7611322824221532466773050284544
443,1.7615874152969956638671808693569
444,1.7620415227675226728029052938531
445,1.7624946094535938255670785502870
446,1.7629466799439863738996188348631
447,1.7633977387966756161636717258867
448,1.7638477905391084613163372448152
449,1.7642968396684780503692005331347
450,1.7647448906519915877606829186725
451,1.7651919479271388857145079200769
452,1.7656380159019544629124686875869
453,1.7660830989552789405325943962474
454,1.7665272014370161245809891272389
455,1.7669703276683893983687173084956
456,1.7674124819421927221109609741705
457,1.7678536685230409353342294621466
458,1.7682938916476157579661068803548
459,1.7687331555249100040095775841024
460,1.7691714643364696501230180794081
461,1.7696088222366316088076404671300
462,1.7700452333527604192294043028708
463,1.7704807017854824594238335755746
464,1.7709152316089158407652991070610
465,1.7713488268708999534129658698653
466,1.7717814915932217934058500699251
467,1.7722132297718383518995476460442
468,1.7726440453771000821604232794043
469,1.7730739423539679209895220091747
470,1.7735029246222313890921238456551
471,1.7739309960767220374741867277597
472,1.7743581605875265374521858905803
473,1.7747844220001947651527164826426
474,1.7752097841359503844698412901406
475,1.7756342507918928512080526401449
476,1.7760578257412033521899103471096
477,1.7764805127333450122972808342419
478,1.7769023154942620454069617371242
479,1.7773232377265767385766537305895
480,1.7777432831097846640334902296759
481,1.7781624553004466698110837588856
482,1.7785807579323812177914749267846
483,1.7789981946168524491194550497721
484,1.7794147689427567967120032317568
485,1.7798304844768096217082149393116
486,1.7802453447637264586192751638674
487,1.7806593533264057179286417192427
488,1.7810725136661074425941460594164
489,1.7814848292626313465173180045709
490,1.7818963035744919979895656188486
491,1.7823069400390932822782281182916
492,1.7827167420729007314200180194789
493,1.7831257130716116961078040419422
494,1.7835338564103244535853982948037
495,1.7839411754437044439201192538830
496,1.7843476735061508789448416610848
497,1.7847533539119594092593597954701
498,1.7851582199554847944105537459965
499,1.7855622749113010734375246301495
500,1.785965522034361366114563481732
501,1.786367964560153050763722083162
502,1.786769605704855773644426973196
503,1.787170448665493757873814437693
504,1.787570496620090255534657933985
505,1.787969752727816990255907410723
506,1.788368220129144320167135875563
507,1.788765901945989969064420796937
508,1.789162801281865965554855392516
509,1.789558921222022020872576344462
510,1.789954264833591398402874117157
511,1.790348835165732505790138074650
512,1.790742635249770109620236282463
513,1.791135668099334788210460973591
514,1.791527936710501298765552324175
515,1.791919444061926232993409242533
516,1.792310193114983171365090853576
517,1.792700186813896410607293337810
518,1.793089428085875049661403372453
519,1.793477919841244215902161000037
520,1.793865664973576288470682102995
521,1.794252666359818913800053066326
522,1.794638926860424089386374789979
523,1.795024449319474752813774625290
