Eigenstate,Potential Energy
1,0.500000002724335047491000180223564999
2,0.64623095543525384675803650336446827
3,0.73633766194946639074493209135880261
4,0.79966538664786693966444525097128710
5,0.8480467638394166164564444319638976
6,0.8870662886999399644679572994539724
7,0.9197212428813572650037099777810629
8,0.9477844128909472780260917986897224
9,0.9723842978293711424529016386142555
10,0.9942811519239625440363942633278109
11,1.0140105453884887447546676219137359
12,1.0319635735991761706559695501680189
13,1.0484343666949832880820110142896798
14,1.0636496224353223652775180234617263
15,1.0777877220152033146702991580651936
16,1.090991534936299280893117804734833
17,1.103377252468873157192728911086348
18,1.115040638658279025422293961776060
19,1.126061553429166926272400899051772
20,1.136507290219598938169997927991245
21,1.146435082062895444249132850057942
22,1.155894012746504658653892627421736
23,1.164926494748644104312675145199001
24,1.173569426638831817460603047783464
25,1.181855109873917307216635731062297
26,1.189811982605771719496229412130016
27,1.197465212643965602512431140422751
28,1.204837180814911420898207985579292
29,1.211947878163919840564944010360681
30,1.218815234797131025710159820573414
31,1.225455394014343540438641089964566
32,1.231882942305863757024172695482028
33,1.238111103476850793247018764827254
34,1.244151903412085681112278112357426
35,1.250016310654898365067428427936086
36,1.255714356940507222096179048133060
37,1.261255241019941228728882071003472
38,1.266647418480296144308986476598640
39,1.271898679769227422553686500452329
40,1.277016218235761775791205082583905
41,1.282006689682759041330926885490909
42,1.286876264671363399008948480446508
43,1.291630674611296647026917363632784
44,1.296275252502752232238039060076924
45,1.300814969058079167926533705563539
46,1.305254464818308696581201118404072
47,1.309598078786099950906624935961510
48,1.313849874019094511103539526808679
49,1.318013660563007222457917304895375
50,1.32209301604965793437448043148631
51,1.32609130423968187109443744292648
52,1.33001169175131114239745007624804
53,1.33385716318416979722365002682095
54,1.33763053481946370568511993550913
55,1.34133446705447107723834184507896
56,1.34497147570916486834196711513905
57,1.34854394232559938434492618329315
58,1.35205412356589621156329073384340
59,1.35550415980191068661863382696397
60,1.35889608297863562187311863353487
61,1.36223182382383479877513325496087
62,1.36551321846809775741326522142026
63,1.36874201453226554431742443409195
64,1.37191987673286462463971859159466
65,1.37504839205065135017496356674521
66,1.37812907450252206231513236759228
67,1.38116336955278164586326728198417
68,1.38415265819600721850665955766197
69,1.38709826074043100140144528184467
70,1.39000144031783818108820145091584
71,1.39286340614337690422393176737611
72,1.39568531654637934108668485578953
73,1.39846828179123978644076012573392
74,1.40121336670557695898199307442112
75,1.40392159313127660308785144191780
76,1.40659394221256098590141310619764
77,1.40923135653392953318104950204489
78,1.41183474211964910075731247333235
79,1.41440497030542561314481369758785
80,1.41694287949195073310877878352688
81,1.41944927678916794589999687288715
82,1.42192493955934105637595071267683
83,1.42437061686631943244736049077900
84,1.42678703083777010979489321647722
85,1.42917487794658767434593752187513
86,1.43153483021717705612964701221285
87,1.43386753636184698502666095394621
88,1.43617362285212857434629800719192
89,1.43845369492945009508855379967843
90,1.44070833755925589240536018673039
91,1.44293811633233605587896398802640
92,1.44514357831684527708827692726311
93,1.44732525286422720008053889218939
94,1.44948365237201777715313233139849
95,1.45161927300628013284336318070773
96,1.45373259538622177100839385352414
97,1.45582408523336078232428834806179
98,1.45789419398743501079725375814282
99,1.45994335939109485338342969044874
100,1.46197200604527422686060393793376
101,1.46398054593700514641180935007485
102,1.46596937894131601504713551486085
103,1.46793889329874605496140371082873
104,1.46988946606990131025370128363474
105,1.47182146356838485851091431700058
106,1.47373524177334340674115906009572
107,1.47563114672279468939922743147627
108,1.47750951488882119475083292198568
109,1.47937067353564752601278583481250
110,1.48121494106155668539608533323126
111,1.48304262732553513991322019421623
112,1.48485403395948755897666863835385
113,1.48664945466680707853578999267663
114,1.48842917550803872781597947355585
115,1.49019347517433378756335536489255
116,1.49194262524934514393285086458643
117,1.49367689046018266610582375903917
118,1.49539652891800733563093095481233
119,1.49710179234880993212208819360170
120,1.49879292631489509256171774486733
121,1.50047017042755421954936442433647
122,1.50213375855139280319684220263651
123,1.50378391900074661508879154110585
124,1.50542087472860473190694134527959
125,1.50704484350842906011536537329866
126,1.50865603810924622662046632883397
127,1.51025466646436863502752234398609
128,1.51184093183408054602081116260671
129,1.51341503296261476024544533833429
130,1.51497716422972905498694080451355
131,1.51652751579717825474365201302178
132,1.51806627375036516794309245373124
133,1.51959362023544438660314524906207
134,1.52110973359214445560867432556661
135,1.52261478848255886060836963450206
136,1.52410895601615594018127045855170
137,1.52559240387124818945123912207503
138,1.52706529641315184061120920873243
139,1.52852779480926993124948267645165
140,1.52998005714132150277699354121691
141,1.53142223851494038768259186057423
142,1.53285449116686489881652510373079
143,1.53427696456993762962842705402096
144,1.53568980553613463139638548962309
145,1.53709315831784705589934300996259
146,1.53848716470763935993512410180997
147,1.53987196413670981448487459699286
148,1.54124769377229104545350313346928
149,1.54261448861422697730489714470179
150,1.54397248159097794938423404811361
151,1.54532180365531317165137800739224
152,1.54666258387996096409916753909379
153,1.54799494955350477042141598590952
154,1.54931902627682905381902440925265
155,1.55063493806043726826261578764063
156,1.55194280742299041509497428509315
157,1.55324275549143790938031538182729
158,1.55453490210314711120004679736454
159,1.5558193659104679663157742467714
160,1.5570962644882151172091636739842
161,1.5583657144445910181877597151978
162,1.5596278315361302006131312410512
163,1.5608827307873035248056089395415
164,1.5621305266154931808751422703209
165,1.5633713329621255529963594229199
166,1.5646052634308452631672061786295
167,1.5658324314337185621466359937846
168,1.5670529503465739850864715506901
169,1.5682669336747337570126488843385
170,1.5694744952305494774516162218673
171,1.5706757493243474973609327183577
172,1.5718708109706092507099132474486
173,1.5730597961114678772813023554814
174,1.5742428218599045887809583123452
175,1.5754200067653793758848962069032
176,1.5765914711050406605614616340615
177,1.5777573372041497401791743256688
178,1.5789177297899276868264033764568
179,1.5800727763837120238845867957110
180,1.5812226077371262708534090028799
181,1.5823673583189251249900516778269
182,1.5835071668603423637869125833281
183,1.5846421769681576885763403984500
184,1.5857725378163824900634513385371
185,1.5868984049295019279350176896417
186,1.5880199410726939006670006088449
187,1.5891373172674873780019071020114
188,1.5902507139550505777473840375998
189,1.5913603223339251162430930901366
190,1.5924663459047511700815234615125
191,1.5935690022617010760581195483590
192,1.5946685251793479002074824654452
193,1.5957651670550984334271735729578
194,1.5968592017818355684827001628820
195,1.5979509281440449125109534204222
196,1.5990406738547676610055102742998
197,1.6001288003820828785174981167320
198,1.6012157087550292847057359390229
199,1.6023018465935170793229421505752
200,1.6033877166799484983290695762811
201,1.6044738874892670076727029932205
202,1.6055610062296395546599419740849
203,1.6066498151336393382638044281202
204,1.6077411720031846528496075921289
205,1.6088360763864590993833901686454
206,1.6099357033072290180148099367024
207,1.6110414472643757962620178920337
208,1.6121549804143370559950694727461
209,1.6132783306768538508753721530360
210,1.6144139883648253161802549111090
211,1.6155650545313974209887198425872
212,1.6167354518149799978754599560519
213,1.6179302315134546046528591147661
214,1.6191560335596779797235742852090
215,1.6204217984891314792537863840520
216,1.6217399129574493291946266710416
217,1.6231281405115937918243328226132
218,1.6246130664887991004193544657353
219,1.6262366994923599072917640539565
220,1.6280703487004997687468834256249
221,1.6302476914174739741131155944952
222,1.6330591978109763531597475078705
223,1.6373125651419933344808468037374
224,1.6467868339754131023732322022608
