Eigenstate,Potential Energy
1,0.500000000051236385932594453929055423
2,0.64623093798555920601844293603653314
3,0.73633761068738019280382925545401642
4,0.79966527986047710281365875022104349
5,0.8480465788301933033316450969729088
6,0.8870660023550748446139200852730590
7,0.9197208318751147820716155411097830
8,0.9477838537682281349493178619636135
9,0.9723835670412666938263935002594377
10,0.9942802258431731677920271540187249
11,1.0140094003152474359200641764814920
12,1.0319621857623174867555649751528387
13,1.0484327122503526163328116639608967
14,1.0636476774626372721808419764072758
15,1.0777854625139633681299245044060836
16,1.090988936821080083830909750628819
17,1.103374291564201379512884597800407
18,1.115037290693207678889182409912960
19,1.126057794031625083806466562980502
20,1.136503094910562989322101133823578
21,1.146430426250412136694482136496541
22,1.155888871719585408418081466911982
23,1.164920843671042991014840406597114
24,1.173563240542714928681106521239959
25,1.181848363653427825547141279749009
26,1.189804651010492844088012274697438
27,1.197457270272281740758657351020060
28,1.204828602107266867190165313878615
29,1.211938637395973241268216133785534
30,1.218805306072803221345364400996212
31,1.225444751258755815495102702455032
32,1.231871559258163072079363416751575
33,1.238098953682918193111699503486509
34,1.244138960217123745264905444160090
35,1.250002547195893277327918049177496
36,1.255699746138560774118997699608234
37,1.261239755572467828165652474765854
38,1.266631030853079667188546186164111
39,1.271881362188332525810567817138945
40,1.276997942679294066293320277857762
41,1.281987427872468279326272527707063
42,1.286855988064083694345808635176688
43,1.291609354390217383912319473285724
44,1.296252859568513231144174026104101
45,1.300791474019683360191110707336739
46,1.305229837983845347121227592397236
47,1.309572290153271216252713796386546
48,1.313822893265537862704438057859226
49,1.317985457036405998035863207997363
50,1.32206355875763200218786713568632
51,1.32606056183945010245906681667174
52,1.32997963253911708594907497330420
53,1.33382375508446163335108911584962
54,1.33759574537381923051760546994236
55,1.34129826341025812170910507406336
56,1.34493382460792719830867679790574
57,1.34850481009115775166505330591907
58,1.35201347609215383243454442342049
59,1.35546196254035201151594356140883
60,1.35885230092550682996957706044495
61,1.36218642150699399780625952846521
62,1.36546615993352239641790222712676
63,1.36869326333020405040034306737638
64,1.37186939590361875459644656270626
65,1.37499614410997520221439569228093
66,1.37807502142662312082152582625682
67,1.38110747276290863168801565761404
68,1.38409487854260888714590435235316
69,1.38703855848686936990194562489538
70,1.38993977512363896997834579214630
71,1.39279973704699925122446802269628
72,1.39561960194748607696215025885642
73,1.39840047943244875792403976208008
74,1.40114343365367303709110536752440
75,1.40384948575786312493256675960527
76,1.40651961617412844179588883390577
77,1.40915476675131832577648185189496
78,1.41175584275688216621628733722489
79,1.41432371474788560298816932460247
80,1.41685922032387530607834110375409
81,1.41936316577043550850260418031910
82,1.42183632760151801503836445201909
83,1.42427945400793867546471851278841
84,1.42669326621880901928675263848299
85,1.42907845978211247274640481781477
86,1.43143570577011871353280571714544
87,1.43376565191487224780526612281180
88,1.43606892367856791640615542311470
89,1.43834612526324253497943534706055
90,1.44059784056386865598134254740682
91,1.44282463406861498851898922817325
92,1.44502705170974971441340311036696
93,1.44720562166840068382800864943217
94,1.44936085513614354506531880384911
95,1.45149324703616770910569012310820
96,1.45360327670656822734539912719374
97,1.45569140854812731888195330514889
98,1.45775809263877640939946531658420
99,1.45980376531677607151820763272306
100,1.46182884973450491605605124183756
101,1.46383375638461917949522635232403
102,1.46581888360021917822672563713732
103,1.46778461803055088653163626417429
104,1.46973133509366363054872617041936
105,1.47165939940735181672012899820089
106,1.47356916519961784896376831249731
107,1.47546097669981530686547467036679
108,1.47733516851155221762960076193124
109,1.47919206596836566099254254057188
110,1.48103198547311652617885698585677
111,1.48285523482198737878080397084941
112,1.48466211351391696180903709250697
113,1.48645291304624931936784765372592
114,1.48822791719732677365231108037902
115,1.48998740229671553746180386116211
116,1.49173163748370441277657577586048
117,1.49346088495468531293696422430284
118,1.49517540019998331485951231795634
119,1.49687543223067023400797290204909
120,1.49856122379586987260210134692074
121,1.50023301159102482430315442340579
122,1.50189102645757580548200253661350
123,1.50353549357447229024412761572413
124,1.50516663264191554657674169559732
125,1.50678465805770560472063125659628
126,1.50838977908654849157153426282328
127,1.50998220002265948702948427282655
128,1.51156212034597557102501020678674
129,1.51312973487227815671253979393006
130,1.51468523389750882345457243490088
131,1.51622880333654535910182240769356
132,1.51776062485669044387428968993913
133,1.51928087600611352656330109771223
134,1.52078973033747516781703125672186
135,1.52228735752694501692868880070962
136,1.52377392348882090101626027531129
137,1.52524959048594319753982698638604
138,1.52671451723608504911109367639071
139,1.52816885901449687364483499529948
140,1.52961276775276817693343116452449
141,1.53104639213416511723566066580871
142,1.53246987768559419820436128388843
143,1.53388336686633381630770702711805
144,1.53528699915366820926253189490191
145,1.53668091112555416423850181007528
146,1.53806523654044297584156750338775
147,1.53944010641437194091888128329469
148,1.54080564909544071919409812636145
149,1.54216199033577436066804835750542
150,1.54350925336107664064195451916769
151,1.54484755893786961659770418245538
152,1.54617702543850970608396049926418
153,1.54749776890406923528116464688866
154,1.54880990310516735746587638082795
155,1.55011353960082857734578712150384
156,1.55140878779544674760640211435856
157,1.55269575499392558425030869361604
158,1.55397454645506751880777007721828
159,1.5552452654432745602294029392853
160,1.5565080132786275039759503071295
161,1.5577628893854019844015928443787
162,1.5590099913390808315076219309247
163,1.5602494149119175853411212205652
164,1.5614812541171058046096341635052
165,1.5627056012516027697049349447222
166,1.5639225469376580957001833365297
167,1.5651321801630944876158834453939
168,1.5663345883203833268441115480581
169,1.5675298572445601507971502250361
170,1.5687180712500197688726080876350
171,1.5698993131662312091716179638112
172,1.5710736643724103626041097891279
173,1.5722412048311857266881883192018
174,1.5734020131212930925336978456392
175,1.5745561664693331599194220591894
176,1.5757037407806217867928521766156
177,1.5768448106691661337065115366471
178,1.5779794494867958575635243266624
179,1.5791077293514757995945460836919
180,1.5802297211748311139417702731962
181,1.5813454946889074854125879907610
182,1.5824551184721941317649413935587
183,1.5835586599749326397751633314961
184,1.5846561855437358766008226721833
185,1.5857477604455387845389423091566
186,1.5868334488909020277752713668665
187,1.5879133140566922915991161089599
188,1.5889874181081546703745790250069
189,1.5900558222204008753326666987254
190,1.5911185865993289132355842491578
191,1.5921757705019934584382671801981
192,1.5932274322564433005230535142075
193,1.5942736292810441713275222893957
194,1.5953144181033002921199858824663
195,1.5963498543781925732524426142355
196,1.5973799929060471581619110686123
197,1.5984048876499486870114148624685
198,1.5994245917527124419198322918124
199,1.6004391575534282076047793199639
200,1.6014486366035897876076003026946
201,1.6024530796828211524878362487222
202,1.6034525368142125961074421134804
203,1.6044470572792775546950855168335
204,1.6054366896325417035612367702362
205,1.6064214817157742967847821369539
206,1.6074014806718747685772933147925
207,1.6083767329584204669596311118757
208,1.6093472843608897411647399703156
209,1.6103131800055661256037707876725
210,1.6112744643721351160040204157988
211,1.6122311813059808966846283774712
212,1.6131833740301932461020477795763
213,1.6141310851572889985633729147228
214,1.6150743567006630378004700502095
215,1.6160132300857680286403849334535
216,1.6169477461610368412325191601084
217,1.6178779452085516268781474733027
218,1.6188038669544685179162416427303
219,1.6197255505792012246050453537464
220,1.6206430347273760371301834883327
221,1.6215563575175561350338037361214
222,1.6224655565517524014329499933420
223,1.6233706689247143028626448787182
224,1.6242717312330158940455666617169
225,1.6251687795839395041346122242053
226,1.6260618496041606423729661191163
227,1.6269509764482427660220885712369
228,1.6278361948069437207612759829681
229,1.6287175389153410057058626307325
230,1.6295950425607805492849181912633
231,1.6304687390906507852453171063569
232,1.6313386614199924376993631674115
233,1.6322048420389390007168184394664
234,1.6330673130200040585239522748001
235,1.6339261060252086174056961983891
236,1.6347812523130581480762913890830
237,1.6356327827453729586412149774558
238,1.6364807277939736291580856533850
239,1.6373251175472269433722494909234
240,1.6381659817164544710403715775882
241,1.6390033496422080821849836538619
242,1.6398372503004152492259197403571
243,1.6406677123083981677568955094564
244,1.6414947639307683841972550962360
245,1.6423184330852013034249797947035
246,1.6431387473480930949531921940835
247,1.6439557339601013794290525798451
248,1.6447694198315772760049929962958
249,1.6455798315478837790915676670530
250,1.6463869953746108486074059265485
251,1.6471909372626851131482606125993
252,1.6479916828533769839845522794629
253,1.6487892574832102515009810894818
254,1.6495836861887738203455481580620
255,1.6503749937114394627277683149374
256,1.6511632045019856746440710429943
257,1.6519483427251340257848692525875
258,1.6527304322639944471938808985240
259,1.6535094967244262595410894474152
260,1.6542855594393153277256765207737
261,1.6550586434727676548774886698503
262,1.6558287716242241405017305621666
263,1.6565959664324953526649678323560
264,1.6573602501797217643936632225873
265,1.6581216448952579788300865333419
266,1.6588801723594831101952607240898
267,1.6596358541075405331094703503930
268,1.6603887114330070332873557960419
269,1.6611387653914956288250185336013
270,1.6618860368041877855219691148041
271,1.6626305462613043094931579586722
272,1.6633723141255088959343168128834
273,1.6641113605352517764539613623439
274,1.6648477054080506732889098988622
275,1.6655813684437129352823143632342
276,1.6663123691274971332761507815102
277,1.6670407267332215982322128918168
278,1.6677664603263116560289273684084
279,1.6684895887667970614033105420614
280,1.6692101307122517239083622549831
281,1.6699281046206836147136862084606
282,1.6706435287533723505230384069289
283,1.6713564211776576670608141617822
284,1.6720667997696759386677392828666
285,1.6727746822170515512742984394406
286,1.6734800860215391535011892871163
287,1.6741830285016218451873299182048
288,1.6748835267950617051267970707442
289,1.6755815978614073060876411701046
290,1.6762772584844589496469840816478
291,1.6769705252746894617916583642979
292,1.6776614146716234341994844029900
293,1.6783499429461788169843670342550
294,1.6790361262029658998301144252835
295,1.6797199803825457686669166491668
296,1.6804015212636558234612759465447
297,1.6810807644653922888547184554258
298,1.6817577254493590344132233700187
299,1.6824324195217795073549606960225
300,1.6831048618355735283706792031915
301,1.6837750673923993619847750598812
302,1.6844430510446631543997567891706
303,1.6851088274974929119634788624501
304,1.6857724113106805977997055795954
305,1.6864338169005937751400345955746
306,1.6870930585420560605887418116427
307,1.6877501503701935693064005157330
308,1.6884051063822548305739170594486
309,1.6890579404394002630358420953392
310,1.6897086662684615448028657720332
311,1.6903572974636744733513249044043
312,1.6910038474883828283870340801296
313,1.6916483296767146304578693462821
314,1.6922907572352325996245818920080
315,1.6929311432445581338697492440277
316,1.6935695006609701829245637796400
317,1.6942058423179765561552089929381
318,1.6948401809278630157936491211768
319,1.6954725290832172971128595643062
320,1.6961028992584280568450188857733
321,1.6967313038111626688169285756860
322,1.6973577549838199812751068222176
323,1.6979822649049615499806262240800
324,1.6986048455907203242562066387160
325,1.6992255089461885480092016493937
326,1.6998442667667831130005435357660
327,1.7004611307395911851595405350901
328,1.7010761124446932931840134942616
329,1.7016892233564688543300990518319
330,1.7023004748448805691038320183391
331,1.7029098781767391234783674440058
332,1.7035174445169492599079015852437
333,1.7041231849297375957249367575444
334,1.7047271103798603729755052506638
335,1.7053292317337954546574206378428
336,1.7059295597609146254453789211629
337,1.7065281051346390691836414500220
338,1.7071248784335790820321025709225
339,1.7077198901426540858077974811164
340,1.7083131506541990328990783656799
341,1.7089046702690529163666678331266
342,1.7094944591976318824189252173792
343,1.7100825275609865830892091426583
344,1.7106688853918437628622090991802
345,1.7112535426356338986236392637325
346,1.7118365091515023677703615629121
347,1.7124177947133077098815922180456
348,1.7129974090106037937183097859961
349,1.7135753616496094345209369521749
350,1.7141516621541630039905967675641
351,1.7147263199666641206047281265706
352,1.7152993444490021026799805881078
353,1.7158707448834704686095558999162
354,1.7164405304736688988024864892380
355,1.7170087103453930246589537300072
356,1.7175752935475102544245564444932
357,1.7181402890528248750219701936499
358,1.7187037057589316739227128375306
359,1.7192655524890538262612409968628
360,1.7198258379928739851754943100834
361,1.7203845709473503203086275057164
362,1.7209417599575239861400506191600
363,1.7214974135573126158279797510104
364,1.7220515402102948646283141104965
365,1.7226041483104842393297963284082
366,1.7231552461830910914489119840014
367,1.7237048420852756662706058969830
368,1.7242529442068889965418487083302
369,1.7247995606712062734424051458030
370,1.7253446995356484080891608201280
371,1.7258883687924946369655791107496
372,1.7264305763695851278404916816837
373,1.7269713301310135529774449393369
374,1.7275106378778139382025134197543
375,1.7280485073486324794890366688157
376,1.7285849462203957833669853139176
377,1.7291199621089673204609374847961
378,1.7296535625697952596610241756658
379,1.7301857550985535228270725750782
380,1.7307165471317728168872471307587
381,1.7312459460474645188682737009535
382,1.7317739591657345321276261923625
383,1.7323005937493917885537782919164
384,1.7328258570045463605394071670638
385,1.7333497560812008040905992957467
386,1.7338722980738353918317101425643
387,1.7343934900219829853530464717488
388,1.7349133389107974838110946166741
389,1.7354318516716165235790374707455
390,1.7359490351825156181682848020095
391,1.7364648962688540554768805197603
392,1.7369794417038161608589282596635
393,1.7374926782089453996214941675946
394,1.7380046124546699001648557651928
395,1.7385152510608222547632154120681
396,1.7390246005971532489777338183820
397,1.7395326675838391497359541360617
398,1.7400394584919825603437223494119
399,1.7405449797441054083485418320030
400,1.7410492377146383663500217845331
401,1.7415522387304027548095270848686
402,1.7420539890710856722175054348393
403,1.7425544949697111734980470953278
404,1.7430537626131053898832895902676
405,1.7435517981423530558533079163975
406,1.7440486076532515523221910417573
407,1.7445441971967595829435663289402
408,1.7450385727794379868855634156359
409,1.7455317403638855493100308932920
410,1.7460237058691723241956212207005
411,1.7465144751712647296865758418337
412,1.7470040541034459987252906355504
413,1.7474924484567330641970214001330
414,1.7479796639802863026083872131359
415,1.7484657063818164204390260167555
416,1.7489505813279849129782914785573
417,1.7494342944448009443216906943416
418,1.7499168513180118119481392417042
419,1.7503982574934912745847649691210
420,1.7508785184776207254736005837875
421,1.7513576397376671634242956807695
422,1.7518356267021572434597132188817
423,1.7523124847612452433994701211961
424,1.7527882192670785603188018894790
425,1.7532628355341571164556084444226
426,1.7537363388396902816275184264754
427,1.7542087344239487970088735382777
428,1.7546800274906117141849567722975
429,1.7551502232071122621002429909833
430,1.7556193267049755042443584931357
431,1.7560873430801552899665515879500
432,1.7565542773933676496811496268160
433,1.7570201346704159721071892455705
434,1.7574849199025190617340584039875
435,1.7579486380466299004453007667341
436,1.7584112940257530145545322276172
437,1.7588728927292586088904924885138
438,1.7593334390131924502683412220144
439,1.7597929377005821819309955525164
440,1.7602513935817411404556916714586
441,1.7607088114145668352684148076551
442,1.7611651959248376547079700863977
443,1.7616205518065074466320026478932
444,1.7620748837219925932442943476098
445,1.7625281963024609111133698205232
446,1.7629804941481134010474627954202
447,1.7634317818284660173195206509578
448,1.7638820638826246747742365493153
449,1.7643313448195613346574151638497
450,1.7647796291183833219502135699979
451,1.7652269212286033776559491510395
452,1.7656732255704032877412888588573
453,1.7661185465348968321689998783136
454,1.7665628884843884433413890970307
455,1.7670062557526311982059627797203
456,1.7674486526450794414074658885846
457,1.7678900834391407355871589500091
458,1.7683305523844235351293025101509
459,1.7687700637029830976868756775466
460,1.7692086215895652762499871422576
461,1.7696462302118460419080621117896
462,1.7700828937106699507904046390795
463,1.7705186162002861594024313362903
464,1.7709534017685801497176277267344
465,1.7713872544773051332210194186190
466,1.7718201783623102650765978655151
467,1.7722521774337649494167714043212
468,1.7726832556763842518862021271004
469,1.7731134170496478966422827542358
470,1.7735426654880203728641454463216
471,1.7739710049011664184025632717692
472,1.7743984391741661787179974213096
473,1.7748249721677253925555664854592
474,1.7752506077183881089087240973836
475,1.7756753496387408585976399140250
476,1.7760992017176207948473000080495
477,1.7765221677203181364584169738249
478,1.7769442513887775901668354407244
479,1.7773654564417976421905011395383
480,1.7777857865752281141852408219203
481,1.7782052454621645351224243133464
482,1.7786238367531428985415172692111
483,1.7790415640763301858453414842712
484,1.7794584310377134760798308713134
485,1.7798744412212891197814449572883
486,1.7802895981892465623960965785058
487,1.7807039054821536667933643003301
488,1.7811173666191381321033162915365
489,1.7815299850980682377459271072790
490,1.7819417643957307764758670681316
491,1.7823527079680083114429224206907
492,1.7827628192500543461856011185628
493,1.7831721016564663833167176677721
494,1.7835805585814579667039577926431
495,1.7839881933990279004259174880584
496,1.7843950094631298897252681145116
497,1.7848010101078382902972624658739
498,1.7852061986475139120046647883979
499,1.7856105783769673751965776932738
500,1.786014152571622150980119215800
501,1.786416924487673032351930280791
502,1.786818897362247492257965585854
503,1.787220074413561397618315937818
504,1.787620458841076924081003456366
505,1.788020053825655519924876085945
506,1.788418862529711650170205089987
507,1.788816888097365169917155312178
508,1.789214133654591967893975373390
509,1.789610602309371112145121304491
510,1.790006297151834552163688460631
511,1.790401221254412609638915761303
512,1.790795377671979159137605524298
513,1.791188769441995115606928075359
514,1.791581399584650906346249288497
515,1.791973271103008302962087364706
516,1.792364386983139824940684304390
517,1.792754750194266790917897630963
518,1.793144363688897804396624234541
519,1.793533230402964457266932190788
520,1.793921353255957109573047223205
521,1.794308735151057542239094183084
522,1.794695378975272760475643988572
523,1.795081287599566386584810699486
