Eigenstate,Potential Energy
1,0.500000000046936754120007030643823724
2,0.64623093795749337666242466354669659
3,0.73633761060493874810729977705113442
4,0.79966527968876002934077235444074984
5,0.8480465785327420786374018799143933
6,0.8870660018947915389598285155452072
7,0.9197208312146005429138730412040198
8,0.9477838528699241996645006380596144
9,0.9723835658675198235950656299769118
10,0.9942802243562687317845024981939195
11,1.0140093984774272665668843374365289
12,1.0319621835357899744412806709573720
13,1.0484327095972985790500620745057570
14,1.0636476743452133935133614774284322
15,1.0777854588943041680979873263732252
16,1.090988932661298967993731231464788
17,1.103374286826391088326114672983148
18,1.115037285339440334692526228627407
19,1.126057788023951960467625177144262
20,1.136503088211014086061784321100520
21,1.146430418820995610634879879758406
22,1.155888863522286903190535934936059
23,1.164920834667824887513654354793720
24,1.173563230695515536529996411229044
25,1.181848352924160528714041649171703
26,1.189804639361045210518360761100532
27,1.197457257664514603377368652038078
28,1.204828588503013381813939232305185
29,1.211938622757037925653289039360715
30,1.218805290360960978624822708164836
31,1.225444734435750944535055167559787
32,1.231871541285708266736090920205587
33,1.238098934522693531954508489896164
34,1.244138939830775673007911665021241
35,1.250002525545033578964086144134158
36,1.255699723184765542553859007586940
37,1.261239731277276425993319754353791
38,1.266631005177993683129381028196857
39,1.271881335094814726231037218700236
40,1.276997914128767342148786461001218
41,1.281987397826314588802655886428438
42,1.286855956483643001423086569797342
43,1.291609321236786593029269316122138
44,1.296252824803345118107798285923851
45,1.300791437603985499444253877417107
46,1.305229799878779035456936424921813
47,1.309572250319950393042916760134571
48,1.313822851665028026692865850149752
49,1.317985413629723120730147736812365
50,1.32206351350574143787303687831069
51,1.32606051470326549484376598147938
52,1.32997958347949927144650394909782
53,1.33382370406221754098860492199691
54,1.33759569234970077846198099646615
55,1.34129820834496111038837441181122
56,1.34493376746209020010622577253637
57,1.34850475082536099715700383941989
58,1.35201341466691809313738364366595
59,1.35546189891613747910778437477933
60,1.35885223506271199194524518792440
61,1.36218635336595450952354991160469
62,1.36546608947450994948981557440018
63,1.36869319051342523738583899920106
64,1.37186932068921392994017700771003
65,1.37499606645801733938402158458852
66,1.37807494129711666558951487568046
67,1.38110739011578835150326486873744
68,1.38409479333773871653910684567813
69,1.38703847068404125186727416248527
70,1.38993968468257169327283419797048
71,1.39279964392733728352528436459979
72,1.39561950610879839382093795042283
73,1.39840038083422766745643665402100
74,1.40114333225533300033863429243259
75,1.40384938151873957183317445146592
76,1.40651950905347658269854610006215
77,1.40915465670831195843442190051789
78,1.41175572975061247819268296842063
79,1.41432359873735996940724383108487
80,1.41685910126801608265421172786127
81,1.41936304362807881977739509595398
82,1.42183620233141253776042104526925
83,1.42427932556874441703708655491274
84,1.42669313456909609121538115830503
85,1.42907832488035985901686603955151
86,1.43143556757471303384368388078102
87,1.43376551038410651558568046962518
88,1.43606877877064029154426054443307
89,1.43834597693625507118809537916096
90,1.44059768877582604272652345136626
91,1.44282447877742328743577175638057
92,1.44502689287321509013390330556640
93,1.44720545924422812914482121971028
94,1.44936068908193560035349084582043
95,1.45149307730942317592558022596386
96,1.45360310326468087614812573731357
97,1.45569123134838459073849938736545
98,1.45775791163835811167385178753750
99,1.45980358047275306740451568512544
100,1.46182866100383780789836742277406
101,1.46383356372415698580898361077263
102,1.46581868696669800433919448975938
103,1.46778441738059258875869068004975
104,1.46973113038377447382428457068571
105,1.47165919059392112559401123843651
106,1.47356895223891665188300436899584
107,1.47546075954799497365346732382635
108,1.47733494712464309007666111045348
109,1.47919184030227567647087256383188
110,1.48103175548362983419401754872140
111,1.48285500046476295037125925928256
112,1.48466187474448719170445440836915
113,1.48645266982001862081615092065019
114,1.48822766946957016582468436399555
115,1.48998715002257722534413630591079
116,1.49173138061819635945500019298392
117,1.49346062345268580418443827369844
118,1.49517513401623551592950784939472
119,1.49687516131978073854053849029402
120,1.49856094811230724354690584209880
121,1.50023273108911812676305040697229
122,1.50189074109151313138001094513631
123,1.50353520329829927471578669995483
124,1.50516633740953387598895649305216
125,1.50678435782287151621731944688317
126,1.50838947380287126404537737868345
127,1.50998188964359992341838002764775
128,1.51156180482484447183066381155603
129,1.51312941416223478463803110052061
130,1.51468490795155935905654341614779
131,1.51622847210754134735218043479403
132,1.51776028829732723152516600646514
133,1.51928053406892869020832205289963
134,1.52078938297484693254073124110946
135,1.52228700469109066543500198834772
136,1.52377356513179517312613082669590
137,1.52524922655963667994675023649536
138,1.52671414769222255528255631940091
139,1.52816848380463581375652539300802
140,1.52961238682829691772195474212462
141,1.53104600544630133165461822220939
142,1.53246948518538320476732009576441
143,1.53388296850464690800073137511581
144,1.53528659488120097190771298103798
145,1.53668050089282478418872028244123
146,1.53806482029779053688579078778736
147,1.53943968411195471027596440149041
148,1.54080522068323442247202322162904
149,1.54216155576357044566413289548663
150,1.54350881257848052985868334172425
151,1.54484711189429894834733493611568
152,1.54617657208319256405394005468393
153,1.54749730918604236643114738574033
154,1.54880943697327437812585569170911
155,1.55011306700371816738356555676435
156,1.55140830868157083253131323001402
157,1.55269526931153750511880396604972
158,1.55397405415222018979515917785169
159,1.5552447664678186137306574069943
160,1.5565075075782094230971323746405
161,1.5577623769074622227020407713218
162,1.5590094720308519198516732205815
163,1.5602488887204222257167488037860
164,1.5614807209891549507698013422938
165,1.5627050611337936944861540424339
166,1.5639219997763724448711490497344
167,1.5651316259044963201077320040883
168,1.5663340269104171412120901800827
169,1.5675292886289488977621490225661
170,1.5687174953742628497894155496070
171,1.5698987299756024602689549727063
172,1.5710730738119560248402714864986
173,1.5722406068457224010640791776497
174,1.5734014076554056807038339641281
175,1.5745555534673727899393276576898
176,1.5757031201867037238400396558751
177,1.5768441824271676756102232958827
178,1.5779788135403542149767732709580
179,1.5791070856439859606402334582111
180,1.5802290696494436931628919713471
181,1.5813448352885265568546033973162
182,1.5824544511394750460168630511195
183,1.5835579846522798247936076545069
184,1.5846555021733006221398221652401
185,1.5857470689692170100061220639008
186,1.5868327492503320333331801164098
187,1.5879126061932524923285459783585
188,1.5889867019629613133146380080852
189,1.5900550977343057392105116175546
190,1.5911178537129169906965155655753
191,1.5921750291555806205849449346906
192,1.5932266823900739435704084721802
193,1.5942728708344888451778982241614
194,1.5953136510160533106608630332317
195,1.5963490785894696061768471859932
196,1.5973792083547828041096033617609
197,1.5984040942747940278263655033171
198,1.5994237894920325778176822627636
199,1.6004383463452997730412582620029
200,1.6014478163857984476368297177127
201,1.6024522503928590793969117535397
202,1.6034516983892759261114057859990
203,1.6044462096562638244739403632495
204,1.6054358327480472664181514398449
205,1.6064206155060917182021345875197
206,1.6074006050729902009448819994377
207,1.6083758479060110032464514368314
208,1.6093463897903207473035215470199
209,1.6103122758518885513544681454856
210,1.6112735505700827840600371191669
211,1.6122302577899677697828862141009
212,1.6131824407343106718950685791820
213,1.6141301420153029320088022110492
214,1.6150734036460112408208288136082
215,1.6160122670515572468027745690555
216,1.6169467730800399571952383294687
217,1.6178769620132047903482619254086
218,1.6188028735768682518590053367463
219,1.6197245469511015074431826346165
220,1.6206420207801853606680332585711
221,1.6215553331823345378381160282631
222,1.6224645217592084773990471757874
223,1.6233696236052021846915372615656
224,1.6242706753165322113541062437911
225,1.6251677130001203159178375785313
226,1.6260607722822783435343319548834
227,1.6269498883172029676837371531885
228,1.6278350957952821040634627988148
229,1.6287164289512201488007826577003
230,1.6295939215719867272270302210699
231,1.6304676070045907424764547736557
232,1.6313375181636901328233410114703
233,1.6322036875390323232546711157298
234,1.6330661472027415173372388656540
235,1.6339249288164460004715336842400
236,1.6347800636382551532937488914790
237,1.6356315825295897953452288758154
238,1.6364795159618675900128092725744
239,1.6373238940230489463118570739773
240,1.6381647464240455709212357400372
241,1.6390021025049959518093968512293
242,1.6398359912414106293928019545661
243,1.6406664412501912859912079901337
244,1.6414934807955253418054332138087
245,1.6423171377946604305192490280713
246,1.6431374398235612730831783677866
247,1.6439544141224503314551070879546
248,1.6447680876012398228424839416290
249,1.6455784868448500629512837947430
250,1.6463856381184245223524560297607
251,1.6471895673724394953828739161850
252,1.6479903002477111794858600447538
253,1.6487878620803052365995470396197
254,1.6495822779063484928559097365463
255,1.6503735724667466560249518449666
256,1.6511617702118081354768563022923
257,1.6519468953057803554121413340444
258,1.6527289716312950054241904491344
259,1.6535080227937290312511261763049
260,1.6542840721254817514273296026007
261,1.6550571426901684128985093772751
262,1.6558272572867349103383021906109
263,1.6565944384534925190601651254453
264,1.6573587084720780916892177460387
265,1.6581200893713382431334445710723
266,1.6588786029311396908980376243244
267,1.6596342706861089632874241253949
268,1.6603871139293015085059723646598
269,1.6611371537158044738685586742593
270,1.6618844108662688785578511658422
271,1.6626289059703804631773309546121
272,1.6633706593902631949563697628669
273,1.6641096912638228710145811182001
274,1.6648460215080280279959702035425
275,1.6655796698221320329444167748391
276,1.6663106556908346330666503480591
277,1.6670389983873904476889302537228
278,1.6677647169766561563485370406255
279,1.6684878303180878854815587806998
280,1.6692083570686808865706473525306
281,1.6699263156858593945732573774062
282,1.6706417244303141628960120529693
283,1.6713546013687908873602939827461
284,1.6720649643768266756916810518444
285,1.6727728311414413697931726344499
286,1.6734782191637797455449469001386
287,1.6741811457617096494219254194093
288,1.6748816280723724737032549906873
289,1.6755796830546906183378261017762
290,1.6762753274918326719925310377697
291,1.6769685779936341532231781697389
292,1.6776594509989766966751758200668
293,1.6783479627781295900881955465255
294,1.6790341294350486990210221920824
295,1.6797179669096348664408817697575
296,1.6803994909799593727396272704051
297,1.6810787172644463879022119410054
298,1.6817556612240217325805719344698
299,1.6824303381642247509300009857274
300,1.6831027632372850458136343297758
301,1.6837729514441644878122680914673
302,1.6844409176365665909726681166324
303,1.6851066765189104284235114997568
304,1.6857702426502726653889246115229
305,1.6864316304462991381274309395117
306,1.6870908541810852420166192015910
307,1.6877479279890223107592240713535
308,1.6884028658666174651607847551755
309,1.6890556816742830207662411127734
310,1.6897063891380957895250953940441
311,1.6903550018515298704097377677317
312,1.6910015332771604421443978078682
313,1.6916459967483399508151631610946
314,1.6922884054708484966603126348502
315,1.6929287725245177397073026596768
316,1.6935671108648296999237704035587
317,1.6942034333244879905124637146980
318,1.6948377526149668356206255035008
319,1.6954700813280350140516940300342
320,1.6961004319372547302643607477130
321,1.6967288167994593316192721315531
322,1.6973552481562059863325902773481
323,1.6979797381352068362019321725687
324,1.6986022987517376012736006083183
325,1.6992229419100253984595566290191
326,1.6998416794046140113602098437780
327,1.7004585229217094320775185406969
328,1.7010734840405028642428447514550
329,1.7016865742344761621486025817686
330,1.7022978048726861376799536167442
331,1.7029071872210291736544862768769
332,1.7035147324434872048248318259294
333,1.7041204516033554451144523943664
334,1.7047243556644500451244397799975
335,1.7053264554922999948589396458393
336,1.7059267618553193297368486070848
337,1.7065252854259625121514475393281
338,1.7071220367818640474473428214580
339,1.7077170264069583988376708315981
340,1.7083102646925862926204383789755
341,1.7089017619385831272901745766430
342,1.7094915283543519837117971303973
343,1.7100795740599208741665269624349
344,1.7106659090869842239959077194126
345,1.7112505433799304051994322168236
346,1.7118334867968527968011000888817
347,1.7124147491105479373654874083866
348,1.7129943400094975814099589657268
349,1.7135722690988382046600054037932
350,1.7141485459013155005131147536052
351,1.7147231798582259553379483311209
352,1.7152961803303451850005832304151
353,1.7158675565988423170214516032337
354,1.7164373178661818328666659142422
355,1.7170054732570132356849864749751
356,1.7175720318190467533086772722079
357,1.7181370025239183155919126085970
358,1.7187003942680430501247842599267
359,1.7192622158734530414997096989460
360,1.7198224760886282920885055481506
361,1.7203811835893126292377784715236
362,1.7209383469793210405253084843946
363,1.7214939747913330327314279034165
364,1.7220480754876770385624092664376
365,1.7226006574611041075383758252633
366,1.7231517290355497587596851279015
367,1.7237012984668868876090963593625
368,1.7242493739436665151670123070814
369,1.7247959635878510129338960612169
370,1.7253410754555355160846990801681
371,1.7258847175376603786169704983632
372,1.7264268977607136269239212226794
373,1.7269676239874233785611256240223
374,1.7275069040174445347425321527607
375,1.7280447455880304381899427107894
376,1.7285811563747009526097638280421
377,1.7291161439918987530659460155659
378,1.7296497159936369947182705979716
379,1.7301818798741401997899258457709
380,1.7307126430684751195890186011022
381,1.7312420129531744470835713880041
382,1.7317699968468504982624090932517
383,1.7322966020108035370092546286680
384,1.7328218356496197072553080344179
385,1.7333457049117621937331798434031
386,1.7338682168901562700511821962652
387,1.7343893786227639834929382092667
388,1.7349091970931524134098699172927
389,1.7354276792310561779612358288619
390,1.7359448319129313783778973486590
391,1.7364606619625012977613944211884
392,1.7369751761512974628668008097286
393,1.7374883811991935424278750925217
394,1.7380002837749306631956543476467
395,1.7385108904966370006368323503542
396,1.7390202079323412952358987965604
397,1.7395282426004799243852514937161
398,1.7400350009703975380762126502282
399,1.7405404894628398242618858952292
400,1.7410447144504427039296850515412
401,1.7415476822582140048863326220791
402,1.7420493991640083595552876473063
403,1.7425498713989981476116233215082
404,1.7430491051481383766307584266371
405,1.7435471065506229662866189932070
406,1.7440438817003385452213488888515
407,1.7445394366463128774001635315868
408,1.7450337773931554212395886379944
409,1.7455269099014928826794757051400
410,1.7460188400884022767768968620058
411,1.7465095738278357579369079415760
412,1.7469991169510408014726964800328
413,1.7474874752469768156545055371358
414,1.7479746544627246082018786375414
415,1.7484606603038929912856688775270
416,1.7489454984350189547833238905433
417,1.7494291744799642563847946699242
418,1.7499116940223055918995785949321
419,1.7503930626057226243923699634005
420,1.7508732857343788541865670292688
421,1.7513523688732992820388268010604
422,1.7518303174487441472115009648028
423,1.7523071368485765767066676422324
424,1.7527828324226277595135529436454
425,1.7532574094830560253588485546458
426,1.7537308733047034349311469519769
427,1.7542032291254473663449569285190
428,1.7546744821465471116664652148480
429,1.7551446375329893960279183751138
430,1.7556137004138256815785997047386
431,1.7560816758825087600681203749357
432,1.7565485689972257837244635307679
433,1.7570143847812230724705433361739
434,1.7574791282231337955696533963447
435,1.7579428042772963515257433146436
436,1.7584054178640713473866122304877
437,1.7588669738701553389792842763182
438,1.7593274771488903143025678786496
439,1.7597869325205696015471195043132
440,1.7602453447727412731243234427629
441,1.7607027186605062057260175504113
442,1.7611590589068143602388523133845
443,1.7616143702027589293812833462285
444,1.7620686572078629726184437898246
445,1.7625219245503678691941617350624
446,1.7629741768275146138174353872276
447,1.7634254186058251243624228369756
448,1.7638756544213767799765051399176
449,1.7643248887800780302986061606928
450,1.7647731261579372284290398878763
451,1.7652203710013321909518025605176
452,1.7656666277272733265636088283115
453,1.7661119007236660765957736441234
454,1.7665561943495690565932651195363
455,1.7669995129354515230447948472745
456,1.7674418607834454624859657958666
457,1.7678832421675969989138610191816
458,1.7683236613341135156412794385402
459,1.7687631225016090057540838919172
460,1.7692016298613472937580317541935
461,1.7696391875774809783863566784107
462,1.7700757997872893098707190207574
463,1.7705114706014136057045039635708
464,1.7709462041040883660665991407937
465,1.7713800043533720579077933313917
466,1.7718128753813746986704887871007
467,1.7722448211944815204367898763110
468,1.7726758457735777304274579809248
469,1.7731059530742668448413821020307
470,1.7735351470270901208687155399667
471,1.7739634315377413542880459330365
472,1.7743908104872813405654435810328
473,1.7748172877323473506725528733481
474,1.7752428671053651259367346099446
475,1.7756675524147523150037374755340
476,1.7760913474451258670530164226233
477,1.7765142559575037146001371687720
478,1.7769362816895054222221265281085
479,1.7773574283555506909415294582989
480,1.7777776996470561132123027345594
481,1.7781970992326287297482715411510
482,1.7786156307582599573561952338836
483,1.7790332978475152681537065296007
484,1.7794501041017224403146400022283
485,1.7798660531001598576168070379074
486,1.7802811484002394429901916744605
487,1.7806953935376910752614000589487
488,1.7811087920267430860018182003011
489,1.7815213473603020650116488850884
490,1.7819330630101298379206143040511
491,1.7823439424270197505542084552177
492,1.7827539890409708486270664547871
493,1.7831632062613599281517875279282
494,1.7835715974771125509935774339465
495,1.7839791660568712184645385743498
496,1.7843859153491639477845074156464
497,1.7847918486825689373456223653581
498,1.7851969693658792664576547689271
499,1.7856012806882651273300197378512
500,1.786004785919435720204117626355
501,1.786407488309796558101341591730
502,1.786809391090609636800278675321
503,1.787210497474147938616045011050
504,1.787610810653852114267425720445
505,1.788010333804482190766581890119
506,1.788409070082270035884883168845
507,1.788807022625070427710107648446
508,1.789204194552510369746101611221
509,1.789600588966134882949303407681
510,1.789996208949555328456716362856
511,1.790391057568593492609052516811
512,1.790785137871425335011897022055
513,1.791178452888723015925997485877
514,1.791571005633795880029924981382
515,1.791962799102730771441347184844
516,1.792353836274529890999529470432
517,1.792744120111247271224507743938
518,1.793133653558125655040501996063
519,1.793522439543730560922547340307
520,1.793910480980084392209985061996
521,1.794297780762797386571871453136
522,1.794684341771199682603902594533
523,1.795070166868470941512031161078
