Eigenstate,Potential Energy
1,0.500000000048937944849719120625524625
2,0.64623093797055613953529243520774477
3,0.73633761064330970908029593643700600
4,0.79966527976868278508373944159287638
5,0.8480465786711855856560927983960185
6,0.8870660021090223257924316500043335
7,0.9197208315220251607643403303992087
8,0.9477838532880235829116150074107874
9,0.9723835664138188271840900453352629
10,0.9942802250483207252291696094222186
11,1.0140093993328058159835787765068640
12,1.0319621845720841366034814187121023
13,1.0484327108321101619068002760729321
14,1.0636476757961553484780849593934456
15,1.0777854605789996651814123952367193
16,1.090988934597380899935354893179832
17,1.103374289031501853855088494569769
18,1.115037287831231809052279799317108
19,1.126057790820085595012150948514969
20,1.136503091329161098978490990064946
21,1.146430422278837243407397232077635
22,1.155888867337514725423384064001435
23,1.164920838858141137976251443730317
24,1.173563235278633491777728610704779
25,1.181848357917804893032155969006496
26,1.189804644782952522593976926484508
27,1.197457263532433656277754701361779
28,1.204828594834705653690957009799202
29,1.211938629570278019206668869694263
30,1.218805297673537067808859234022336
31,1.225444742265465227330660725148710
32,1.231871549650377423064820667321214
33,1.238098943440149186005430710472315
34,1.244138949318864859397834423990628
35,1.250002535621619212267953367015530
36,1.255699733867726889833311198594459
37,1.261239742584509582023456672883876
38,1.266631017127412048081133643305940
39,1.271881347704349485612541486476474
40,1.276997927416367948846289942803458
41,1.281987411809949247091641913452188
42,1.286855971181299152844955203852755
43,1.291609336666471404049182366093599
44,1.296252840983085969486030683323862
45,1.300791454551830477267318009245239
46,1.305229817612797423786361764775848
47,1.309572268858233168149317572647655
48,1.313822871025688352851147840789802
49,1.317985433830896847558674164255384
50,1.32206353456558759920547458036397
51,1.32606053663996680912742143733753
52,1.32997960631126264366527073550640
53,1.33382372780727456611240318036689
54,1.33759571702630824642778648714441
55,1.34129823397140151262076122766968
56,1.34493379405667223758779024864565
57,1.34850477840642009006116991821520
58,1.35201344325281689203800128884956
59,1.35546192852526637778157166104413
60,1.35885226571348964178462531917025
61,1.36218638507682833557872380936126
62,1.36546612226395666816011389535261
63,1.36869322439995137578142651445415
64,1.37186935569135634693614793887465
65,1.37499610259434374838977707886104
66,1.37807497858622615905712115530444
67,1.38110742857631192719917481865134
68,1.38409483298833980560429492134967
69,1.38703851154341624869147440283814
70,1.38993972676945048720907303226531
71,1.39279968726048379247149528749547
72,1.39561955070701109969586642688591
73,1.39840042671634015359755661088182
74,1.40114337944021449085020776397134
75,1.40384943002529547291299875281613
76,1.40651955890064902597233741396021
77,1.40915470791508034632715237350701
78,1.41175578233599403136654519210384
79,1.41432365272041027629627549554139
80,1.41685915666782965112594452203560
81,1.41936310046378963095221274184699
82,1.42183626062219460201964668159551
83,1.42427938533381233225111418404760
84,1.42669319582770560322348220589547
85,1.42907838765180842439060492365858
86,1.43143563187834038496615118485738
87,1.43376557623929522807908857542790
88,1.43606884619681635407868364217857
89,1.43834604595288845770446653263652
90,1.44059775940243128710726641522047
91,1.44282455103356006065673933830405
92,1.44502696677848877993157707523324
93,1.44720553481829042223300357110263
94,1.44936076634448506722402151799991
95,1.45149315628020585826787731320841
96,1.45360318396349087692264883705498
97,1.45569131379506466693952011449639
98,1.45775799585280026981719775567432
99,1.45980366647489916177624186023711
100,1.46182874881368014160062514910714
101,1.46383365336173891463962000550575
102,1.46581877845211454354192224046543
103,1.46778451073399102268097853663157
104,1.46973122562535496852040456767259
105,1.47165928774393734441099623313962
106,1.47356905131767637406757096322547
107,1.47546086057586071601826547325869
108,1.47733505012203273176450947477709
109,1.47919194528966308685598885775726
110,1.48103186248154550395958539824135
111,1.48285510949379462580293958283397
112,1.48466198582528051223977037430979
113,1.48645278297327775989011749798608
114,1.48822778471605847505224429900934
115,1.48998726738311788208044049966463
116,1.49173150011367301777476012478249
117,1.49346074510404324932207360561776
118,1.49517525784448032222206944186003
119,1.49687528734598193091579819781365
120,1.49856107635759696259929092882409
121,1.50023286157469229746054724378919
122,1.50189087383863213544550611788541
123,1.50353533832828862672660201095249
124,1.50516647474378490323891335121540
125,1.50678449748284204238579391409074
126,1.50838961581008629671840739634479
127,1.50998203401965234550716031341106
128,1.51156195159139573693323839696185
129,1.51312956334101561639031732603678
130,1.51468505956437045451926938306392
131,1.51622862617625408448073755404491
132,1.51776044484388438076985667784370
133,1.51928069311534513029270047794129
134,1.52078954454321037046643314914972
135,1.52228716880356236076171387021007
136,1.52377373181061066657584646908312
137,1.52524939582710652638190365476207
138,1.52671431957073306110808250063936
139,1.52816865831664977879634880942233
140,1.52961256399635438162086298329994
141,1.53104618529302032485698201627982
142,1.53246966773346050412454184311481
143,1.53388315377685879705986752155762
144,1.53528678290040400593404297417256
145,1.53668069168195655997584047643038
146,1.53806501387987046740691815363265
147,1.53943988051008480423097163227703
148,1.54080541992060006878503930841050
149,1.54216175786344120298718969454080
150,1.54350901756421092113734381070357
151,1.54484731978932926050479546247470
152,1.54617678291104965285066181840609
153,1.54749752297034046655759117102734
154,1.54880965373771591858647382233719
155,1.55011328677209459223075460988746
156,1.55140853147776342700863935801824
157,1.55269549515951822727328643547601
158,1.55397428307605250761916327737831
159,1.5552449984916583478943701502099
160,1.5565077427263055953332873673770
161,1.5577626152041579099051439937788
162,1.5590097135005851139546707491444
163,1.5602491333877266994085082705536
164,1.5614809688786611291176523853543
165,1.5627053122702295325282120503002
166,1.5639222541845643112439455004940
167,1.5651318836093698867750914801632
168,1.5663342879369982793621908414553
169,1.5675295530023645799400309313456
170,1.5687177631197420583332377470658
171,1.5698990011184771021186850815904
172,1.5710733483776618527884128205882
173,1.5722408848597999415186725417738
174,1.5734016891435011680346293552254
175,1.5745558384552391074789667579525
176,1.5757034087002013516125317963884
177,1.5768444744922656448600380448349
178,1.5779791091831310695723997815756
179,1.5791073848906307254270556658227
180,1.5802293725262568493407657927367
181,1.5813451418219210244566032460634
182,1.5824547613559771735661251658242
183,1.5835582985785303862162878627507
184,1.5846558198360558210130055790794
185,1.5857473903953494912200741376887
186,1.5868330744668319022485652860810
187,1.5879129352272283415097537861698
188,1.5889870348416412569215529867914
189,1.5900554344850384551315916460996
190,1.5911181943631727705072001437760
191,1.5921753737329524274162779569713
192,1.5932270309222784779735755246256
193,1.5942732233493676190713618578689
194,1.5953140075415737294477753228703
195,1.5963494391537260591213353760754
196,1.5973795729859977630613794777274
197,1.5984044630013191543843550677827
198,1.5994241623423498390240156707413
199,1.6004387233480225656983398319548
200,1.6014481975696727313409116322699
201,1.6024526357867645183828102804029
202,1.6034520880222270400040149026516
203,1.6044466035574111480431548886851
204,1.6054362309466785184350925905545
205,1.6064210180316329794954628345039
206,1.6074010119550071017571815051912
207,1.6083762591742099199917984272498
208,1.6093468054745500088283835091787
209,1.6103126959821396548054413792077
210,1.6112739751764916204628823520657
211,1.6122306869028158594385666059061
212,1.6131828743840264096997207466779
213,1.6141305802324628428058598502265
214,1.6150738464613412448945666206704
215,1.6160127144959339356238610027502
216,1.6169472251844918795303440979214
217,1.6178774188089137488466340476098
218,1.6188033350951706102307745592483
219,1.6197250132234895083448645000483
220,1.6206424918383084544125878345452
221,1.6215558090580007220477993469733
222,1.6224650024843856477211342357713
223,1.6233701092120194966979083761850
224,1.6242711658372814537475137799892
225,1.6251682084672572951688103801791
226,1.6260612727284242800742365351011
227,1.6269503937751459037811406314337
228,1.6278356062979783235119380575162
229,1.6287169445317956085485179616303
230,1.6295944422637385010793713609989
231,1.6304681328409884770047078219344
232,1.6313380491783775156144444496279
233,1.6322042237658285636379000628724
234,1.6330666886756428397257851848273
235,1.6339254755696271504584823396534
236,1.6347806157060709166435072897715
237,1.6356321399465765300234018824504
238,1.6364800787627447713989281593849
239,1.6373244622427207257412960246311
240,1.6381653200976023477043102971098
241,1.6390026816677159588774994446916
242,1.6398365759287615327231850392615
243,1.6406670314978317979639037734286
244,1.6414940766393068486474403629530
245,1.6423177392706286339934677105340
246,1.6431380469679578465808973323259
247,1.6439550269717145906533776140888
248,1.6447687061920104110891064472880
249,1.6455791112139666515426957386496
250,1.6463862683029295258713040188917
251,1.6471902034095798022644333334454
252,1.6479909421749398979844450811477
253,1.6487885099352834563283000716931
254,1.6495829317269470620751096577602
255,1.6503742322910479748565947208274
256,1.6511624360781079652253032936164
257,1.6519475672525896441726334634646
258,1.6527296496973417301636946774455
259,1.6535087070179600565481048716509
260,1.6542847625470647050591455446073
261,1.6550578393484935784677236919818
262,1.6558279602214171371317586487735
263,1.6565951477043731493366539061790
264,1.6573594240792269055945542041291
265,1.6581208113750554214436633923905
266,1.6588793313719577957947554209938
267,1.6596350056047949373710708233126
268,1.6603878553668586922559395810040
269,1.6611379017134746417617904445416
270,1.6618851654655342940597676377975
271,1.6626296672129659528219448850370
272,1.6633714273181382417355174072939
273,1.6641104659192037272984379071904
274,1.6648468029333798482100650607703
275,1.6655804580601710262317728892976
276,1.6663114507845302361656328238665
277,1.6670398003799675182612435164914
278,1.6677655259115971869943585590003
279,1.6684886462391352386820998179886
280,1.6692091800198390508014039427415
281,1.6699271457113972618342192352303
282,1.6706425615747673279090274166067
283,1.6713554456769639686859207429923
284,1.6720658158937956590221710034570
285,1.6727736899125559736808787841902
286,1.6734790852346658098295701829555
287,1.6741820191782715466224701486885
288,1.6748825088807955436452874746006
289,1.6755805713014436262889671621326
290,1.6762762232236702905836249684150
291,1.6769694812575994684359848719533
292,1.6776603618424037381808524703355
293,1.6783488812486458862252307338655
294,1.6790350555805778567042696707791
295,1.6797189007783991762980502822605
296,1.6804004326204824397753212248054
297,1.6810796667255557879931026675616
298,1.6817566185548516951102974663645
299,1.6824313034142188678754497552173
300,1.6831037364561990075994850907711
301,1.6837739326820688462542017025061
302,1.6844419069438495496345074975020
303,1.6851076739462806607173559921721
304,1.6857712482487621607524415612726
305,1.6864326442672660766166406487326
306,1.6870918762762168976571421822192
307,1.6877489584103379840037156243808
308,1.6884039046664714448049987134406
309,1.6890567289053675756812185701519
310,1.6897074448534441905670684208724
311,1.6903560661045194428755809373804
312,1.6910026061215156491442572493688
313,1.6916470782381355079400664319466
314,1.6922894956605125183267787318482
315,1.6929298714688349175673926494562
316,1.6935682186189445137333404486910
317,1.6942045499439079518564184128038
318,1.6948388781555657648993890678788
319,1.6954712158460563511390550218126
320,1.6961015754893148792516648694724
321,1.6967299694425510400679389906759
322,1.6973564099477017594620400840023
323,1.6979809091328623864463059423481
324,1.6986034790136953336466058432224
325,1.6992241314948179321730403749683
326,1.6998428783711677381486866711642
327,1.7004597313293481116865332098656
328,1.7010747019489512575461715464520
329,1.7016878017038637023659758273264
330,1.7022990419635506401729675224157
331,1.7029084339943205847859167275033
332,1.7035159889605713903732953124056
333,1.7041217179260180187432155365360
334,1.7047256318549002374105317731243
335,1.7053277416131745633958767067852
336,1.7059280579696865108318102202458
337,1.7065265915973260146452570057828
338,1.7071233530741670891929112489863
339,1.7077183528845877863807273617077
340,1.7083116014203765446343597930972
341,1.7089031089818206423238629792316
342,1.7094928857787792528191195136522
343,1.7100809419317407389927133305560
344,1.7106672874728641809059154715549
345,1.7112519323470069560407887644085
346,1.7118348864127358469032764931649
347,1.7124161594433252413862481766237
348,1.7129957611277392376485228634424
349,1.7135737010716011984652718304311
350,1.7141499887981482974253873806272
351,1.7147246337491731446117144604480
352,1.7152976452859521741650204136511
353,1.7158690326901600781460535354527
354,1.7164388051647717012085538221765
355,1.7170069718349517614050436015931
356,1.7175735417489306069534352554440
357,1.7181385238788692480495603542131
358,1.7187019271217129077727210373100
359,1.7192637603000288372737006379443
360,1.7198240321628373332130524833269
361,1.7203827513864277023692003001578
362,1.7209399265751656550706756448653
363,1.7214955662622867231168739349080
364,1.7220496789106807262378190266757
365,1.7226022729136655235160889367873
366,1.7231533565957489274973929761682
367,1.7237029382133816730600661137220
368,1.7242510259556982298325331127365
369,1.7247976279452500907660642378428
370,1.7253427522387272501013503787685
371,1.7258864068276707241026835201014
372,1.7264285996391750711049719498818
373,1.7269693385365808776569165995235
374,1.7275086313201615193084614834131
375,1.7280464857277948876823159972630
376,1.7285829094356315401166813457049
377,1.7291179100587510611639706638312
378,1.7296514951518098034288960662922
379,1.7301836722096818476252676615782
380,1.7307144486680899386922279481937
381,1.7312438319042292734843752418212
382,1.7317718292373812582852571243777
383,1.7322984479295219108871504102977
384,1.7328236951859198710198236336013
385,1.7333475781557276404675058117076
386,1.7338701039325667116104357445243
387,1.7343912795551023338142908168587
388,1.7349111120076118545519731351394
389,1.7354296082205473100312263334643
390,1.7359467750710894545230980486731
391,1.7364626193836935454207477175001
392,1.7369771479306304924975656492505
393,1.7374903674325208449419621124922
394,1.7380022845588601973599910053879
395,1.7385129059285388717128166320751
396,1.7390222381103555261535146277810
397,1.7395302876235243207684454855491
398,1.7400370609381756484581495058365
399,1.7405425644758489968485932864137
400,1.7410468046099822412970886163862
401,1.7415497876663934180129324411891
402,1.7420515199237557226204920556599
403,1.7425520076140685550109535167604
404,1.7430512569231225036832397750471
405,1.7435492739909557351345423734307
406,1.7440460649123078974479437253266
407,1.7445416357370686549153808285020
408,1.7450359924707183570097693132509
409,1.7455291410747637029042834728281
410,1.7460210874671709161421197863541
411,1.7465118375227906896008058407162
412,1.7470013970737784834689857196747
413,1.7474897719100112554271600985239
414,1.7479769677794970470112546922155
415,1.7484629903887817102594682487830
416,1.7489478454033492044125576673097
417,1.7494315384480183112972944090867
418,1.7499140751073329327744635364443
419,1.7503954609259502489102751330011
420,1.7508757014090217189436492924273
421,1.7513548020225708773843863462844
422,1.7518327681938672070046007722065
423,1.7523096053117939250195165367023
424,1.7527853187272132963458863014619
425,1.7532599137533258534627100363446
426,1.7537333956660271298819363725170
427,1.7542057697042593920312571787460
428,1.7546770410703583834105834176865
429,1.7551472149303989935852123504066
430,1.7556162964145327143057711966231
431,1.7560842906173243865881244487702
432,1.7565512025980853884595327438462
433,1.7570170373811986014538556767342
434,1.7574817999564462539902297840610
435,1.7579454952793284655046804220441
436,1.7584081282713803925266881179111
437,1.7588697038204861382749976212902
438,1.7593302267811884080441004144041
439,1.7597897019749945918992506101492
440,1.7602481341906803461075997246324
441,1.7607055281845878333794566509537
442,1.7611618886809221857898660366764
443,1.7616172203720458383032577475496
444,1.7620715279187653525040328093494
445,1.7625248159506200614306012191010
446,1.7629770890661635601000015125861
447,1.7634283518332452111393170101839
448,1.7638786087892848839755383745875
449,1.7643278644415487683422603927728
450,1.7647761232674184148045265404436
451,1.7652233897146605056612219310641
452,1.7656696682016901978429022290816
453,1.7661149631178337811514702138775
454,1.7665592788235870410711255944332
455,1.7670026196508729503093674766768
456,1.7674449899032939863568249406107
457,1.7678863938563837710715871630132
458,1.7683268357578544284869236266592
459,1.7687663198278421750759252750437
460,1.7692048502591507851310775744174
461,1.7696424312174907813057756493725
462,1.7700790668417175636955219860505
463,1.7705147612440670815627456586763
464,1.7709495185103872089547715050654
465,1.7713833427003687932966940625282
466,1.7718162378477735080119202523397
467,1.7722482079606577900487981850141
468,1.7726792570215978783233485504429
469,1.7731093889879084301539360608345
470,1.7735386077918622406102892857015
471,1.7739669173409053322808949675862
472,1.7743943215178717134681840125554
473,1.7748208241811931561244011632688
474,1.7752464291651114979396266470559
475,1.7756711402798823917627845168639
476,1.7760949613119830165950501488032
477,1.7765178960243140835987514356985
478,1.7769399481564008135598091701106
479,1.7773611214245917756513196782483
480,1.7777814195222559825520376506376
481,1.7782008461199767932739482704233
482,1.7786194048657461929785049678946
483,1.7790370993851548302798629478141
484,1.7794539332815806322995731870763
485,1.7798699101363774748732287643560
486,1.7802850335090584932326982001860
487,1.7806993069374808824921789257024
488,1.7811127339380267849778721023919
489,1.7815253180057834930674653246451
490,1.7819370626147208311633392162957
491,1.7823479712178678515897455430378
492,1.7827580472474874331184773034206
493,1.7831672941152487576664208058403
494,1.7835757152123987597417023188962
495,1.7839833139099307416925610744617
496,1.7843900935587533997460999723279
497,1.7847960574898559469335667646796
498,1.7852012090144732787522957881186
499,1.7856055514242486794854165256549
500,1.786009087991396200274982669928
501,1.786411821968858455587341527236
502,1.786813756590467293873117361508
503,1.787214895071098811178034658674
504,1.787615240606830552189104738799
505,1.788014796375093746839903733476
506,1.788413565534826313239630676257
507,1.788811551226624475640050359581
508,1.789208756572892638107539770507
509,1.789605184677989745512034491345
510,1.790000838628378185805939774059
511,1.790395721492768465428865596052
512,1.790789836322263558808206935278
513,1.791183186150501548492870357960
514,1.791575773993797233200433253610
515,1.791967602851283078920597513426
516,1.792358675705047724330463836052
517,1.792748995520273116201834767672
518,1.793138565245372061156917377852
519,1.793527387812122976710304590239
520,1.793915466135804699618557533033
521,1.794302803115328147818568105109
522,1.794689401633369113227229743208
523,1.795075264556498623666943043826
