Eigenstate,Potential Energy
1,0.500000000061085302153716798928369135
2,0.64623093804984801316708452051507348
3,0.73633761087622435552581705623131629
4,0.79966528025382072501105218490197493
5,0.8480465795115511171272560019317011
6,0.8870660034094270987842052640666208
7,0.9197208333881321167863444611472585
8,0.9477838558259487938243693590566616
9,0.9723835697299468602751790430730439
10,0.9942802292492114031927963534404198
11,1.0140094045251440020258929661039292
12,1.0319621908626514450705683066001863
13,1.0484327183277686058216967332880426
14,1.0636476846038378573652987224811060
15,1.0777854708057047481915889468563660
16,1.090988946350169913439232642044602
17,1.103374302417497963818257977958076
18,1.115037302957620090589243017655780
19,1.126057807794113915919273222074859
20,1.136503110258141556946500302929342
21,1.146430443270148002845212874578131
22,1.155888890498602148437684937958912
23,1.164920864296522135831638541286700
24,1.173563263101898044409308411590509
25,1.181848388233618698678111777774252
26,1.189804677699059749689376526119472
27,1.197457299156659776870266815095948
28,1.204828633274960342748858619115859
29,1.211938670934558107909167998059115
30,1.218805342069929541652108906697483
31,1.225444789802150261930768733022876
32,1.231871600435631452085162304039439
33,1.238098997582347996814931152384301
34,1.244139006926486712975320285457096
35,1.250002596803247984573829433406599
36,1.255699798732055232423409707600525
37,1.261239811240342100117420727104945
38,1.266631089683668494646043125331233
39,1.271881424270067970301855277359027
40,1.276998008100708160859730835996869
41,1.281987496722195691204901142282547
42,1.286856060430864398007908268465646
43,1.291609430362899344074502128245462
44,1.296252939236055095451911591868081
45,1.300791557471157161342689091888537
46,1.305229925308439214257705817699628
47,1.309572381440292095487582022026799
48,1.313822988604414246707350552745904
49,1.317985556516690664619267881206317
50,1.32206366246900476187469772364501
51,1.32606066987172055503479439560214
52,1.32997974498222738602297358526703
53,1.33382387202848926497018796788752
54,1.33759586690897979089296942399508
55,1.34129838962690811412811826906763
56,1.34493395559656683431932566441060
57,1.34850494594243376262896225274955
58,1.35201361689686229055512789986669
59,1.35546210838944116045637816437554
60,1.35885245191007992518294453552876
61,1.36218657771831215670681604537377
62,1.36546632146300745852861244025769
63,1.36869343026944144761718009285536
64,1.37186956834436039171496963935988
65,1.37499632214414234786864019871694
66,1.37807520514630930898940882309349
67,1.38110766226038257392123911766979
68,1.38409507391031739568591933061791
69,1.38703875981744029184686687493695
70,1.38993998250988413266869262985408
71,1.39279995058191741901864244565406
72,1.39561982172426591957517690397710
73,1.39840070554447183050580259854812
74,1.40114366619451677222270885940894
75,1.40384972482130383672191929685625
76,1.40651986185414434225580497926752
77,1.40915501914209255367085116823822
78,1.41175610195280582856203599996812
79,1.41432398084356082940275725464233
80,1.41685949341411831616462902836500
81,1.41936344595027969246491238005507
82,1.42183661496621702772548200507524
83,1.42427974865296954403760743023259
84,1.42669356823987526471055798100780
85,1.42907876927514724530830860597836
86,1.43143602283128794258912095004640
87,1.43376597664057780596306838967853
88,1.43606925616545079834659061056286
89,1.43834646560818605113172151509834
90,1.44059818886400164125832727138644
91,1.44282499042131502632703162595807
92,1.44502741621264637615116225471315
93,1.44720599441937878409063884647214
94,1.44936123623334641277244826309404
95,1.45149363657800047477347520906508
96,1.45360367479170112672478583352203
97,1.45569181527549901318730262969348
98,1.45775850810759732235354304537044
99,1.45980418962653174344157684096945
100,1.46182928298495937523078210053781
101,1.46383419867581833103497788877415
102,1.46581933503249421068705509687841
103,1.46778507870452169649658270609999
104,1.46973180511024226543179165276087
105,1.47165987886774593601970620126364
106,1.47356965420533420421531606988435
107,1.47546147535266324053474498205449
108,1.47733567691364718119344641546365
109,1.47919258422213275245605927836340
110,1.48103251368129404727964683573323
111,1.48285577308763041213357411282607
112,1.48466266194040096824583872874542
113,1.48645347173727375573171576455842
114,1.48822848625691873130417986046556
115,1.48998798182923340176314410077233
116,1.49173222759384154381235185117670
117,1.49346148574747374774617342683078
118,1.49517601178079749144276308591081
119,1.49687605470523073738409826383892
120,1.49856185727024720318853307605299
121,1.50023365617164318889695132751241
122,1.50189168225121693112130810269659
123,1.50353616068827926123225840530620
124,1.50516731118339666495384859667657
125,1.50678534813473827447055321689833
126,1.50839048080738312685408532655758
127,1.50998291349592344473134217832697
128,1.51156284568067710792492258406995
129,1.51313047217781041155968594486395
130,1.51468598328365382426154845244718
131,1.51622956491347805595671094242213
132,1.51776139873498276757928146375526
133,1.51928166229673847341021195605474
134,1.52079052915181091081321096283524
135,1.52228816897677904378973940940839
136,1.52377474768635417924530889924257
137,1.52525042754379436691595878269318
138,1.52671536726729464191308116138943
139,1.52816972213253156293933708529305
140,1.52961364407152505326010781420461
141,1.53104728176797599402511614529501
142,1.53247078074922994626812621864618
143,1.53388428347500872774292165946780
144,1.53528792942304439111746312654397
145,1.53668185517174596228853637784116
146,1.53806619448002142882890187126052
147,1.53944107836436926561277709760096
148,1.54080663517335482663221771945113
149,1.54216299065957340394312394059978
150,1.54351026804920359460179439888292
151,1.54484858810924688983040831103968
152,1.54617806921254378556404675490336
153,1.54749882740065536405625427004831
154,1.54881097644469424576760777053606
155,1.55011462790418314751262648234227
156,1.55140989118401891321022137653090
157,1.55269687358961306382255852723578
158,1.55397568038028068456548403940590
159,1.5552464148209413222054498750853
160,1.5565091782321982299623275695067
161,1.5577640700388544561188465964059
162,1.5590111878169252374180966373426
163,1.5602506273392015505281156634140
164,1.5614824826194194581491983686225
165,1.5627068459550838499616363234885
166,1.5639238079689970939829180961201
167,1.5651334576495398306345059912753
168,1.5663358823897465984126459472972
169,1.5675311680252213532340561414778
170,1.5687193988709326245537679371512
171,1.5699006577569285026965272271271
172,1.5710750260630093240410818047858
173,1.5722425837523934563693543751921
174,1.5734034094044120278760935894323
175,1.5745575802462665847534648876042
176,1.5757051721838793836853367530469
177,1.5768462598318695797703405230385
178,1.5779809165426844642521695966267
179,1.5791092144349121969847836973847
180,1.5802312244208069800140663082762
181,1.5813470162330493208441150145391
182,1.5824566584507690807563191521129
183,1.5835602185248543574377801626121
184,1.5846577628025704434377483340977
185,1.5857493565515106685585839181081
186,1.5868350639829000947830262351467
187,1.5879149482742758642187110784921
188,1.5889890715915596363571409016383
189,1.5900574951105458457180677031456
190,1.5911202790378214309370828844445
191,1.5921774826311362578282612345674
192,1.5932291642192406186045251524778
193,1.5942753812212081110825010513713
194,1.5953161901652572386334155239799
195,1.5963516467070896632169263246027
196,1.5973818056477588033758085315169
197,1.5984067209510831524902008430634
198,1.5994264457606184792478896234799
199,1.6004410324162017441624145156751
200,1.6014505324700806723152168773692
201,1.6024549967026399587176051643822
202,1.6034544751377374824198852480151
203,1.6044490170576611840664611399335
204,1.6054386710177182217751666168299
205,1.6064234848604663706700420594178
206,1.6074035057296006847817646977949
207,1.6083787800835012919590006978359
208,1.6093493537084565432125226061914
209,1.6103152717315672593386273036426
210,1.6112765786333435704382256060397
211,1.6122333182600017073070696626978
212,1.6131855338354709718380402594367
213,1.6141332679731152643420624204854
214,1.6150765626871841434909106397867
215,1.6160154594039926251258005271345
216,1.6169499989728436744024141791579
217,1.6178802216766973503275289615830
218,1.6188061672425955751503492120172
219,1.6197278748518458015590652178684
220,1.6206453831499760858227291542720
221,1.6215587302564594691831864185760
222,1.6224679537742248648762876531209
223,1.6233730907989480116277069033690
224,1.6242741779281375529363483813894
225,1.6251712512700187987023718746546
226,1.6260643464522187071556728045428
227,1.6269534986302607299460183815856
228,1.6278387424958713306102643114638
229,1.6287201122851053285751581882618
230,1.6295976417862947549479536869314
231,1.6304713643478230093740323077946
232,1.6313413128857347268905053514691
233,1.6322075198911763402889178528362
234,1.6330700174376834840619272565770
235,1.6339288371883084110432612880608
236,1.6347840104025971205178548881052
237,1.6356355679434198179397071739329
238,1.6364835402836564372764402098460
239,1.6373279575127426615712742098131
240,1.6381688493430785951478690459596
241,1.6390062451163043688162514741166
242,1.6398401738094455340381893161804
243,1.6406706640409322768356960997340
244,1.6414977440764941396865275286227
245,1.6423214418349346245274589315472
246,1.6431417848937881954421818067387
247,1.6439588004948610628286918384871
248,1.6447725155496633296102504894522
249,1.6455829566447274680154511826311
250,1.6463901500468235110585231051751
251,1.6471941217080688581577998302710
252,1.6479948972709354928180640182362
253,1.6487925020731596840067082987244
254,1.6495869611525538275083992685749
255,1.6503782992517243067141142824549
256,1.6511665408226954576405510838815
257,1.6519517100314460289518511695780
258,1.6527338307623545810718008850042
259,1.6535129266225606272660830750719
260,1.6542890209462419024294996368175
261,1.6550621367988080726653349180549
262,1.6558322969810156104200791673505
263,1.6565995240330026850916346020705
264,1.6573638402382495193010442987214
265,1.6581252676274627353930229190633
266,1.6588838279823858592349286659452
267,1.6596395428395391938847758510644
268,1.6603924334938890961672437241553
269,1.6611425210024509253946156914255
270,1.6618898261878213876986742200916
271,1.6626343696416495592493875807603
272,1.6633761717280405672465674773246
273,1.6641152525868993711197459660129
274,1.6648516321372118522764544587056
275,1.6655853300802670873008402018739
276,1.6663163659028190822785920533006
277,1.6670447588801954515858472515135
278,1.6677705280793447951137424665210
279,1.6684936923618342764231179005011
280,1.6692142703867894947242501941023
281,1.6699322806137845395356559210093
282,1.6706477413056797243210640170095
283,1.6713606705314102115833077209868
284,1.6720710861687226859822725915695
285,1.6727790059068668827720993436622
286,1.6734844472492379963357995507423
287,1.6741874275159750281448094076214
288,1.6748879638465114759542106755126
289,1.6755860732020830123351385954991
290,1.6762817723681928851091731618041
291,1.6769750779570328806629646559392
292,1.6776660064098627350895033671873
293,1.6783545739993518989699834655793
294,1.6790407968318786927529660635453
295,1.6797246908497889399162261301234
296,1.6804062718336216635157838922630
297,1.6810855554042917778891811453308
298,1.6817625570252390923101386325864
299,1.6824372920045404294954829928319
300,1.6831097754969866096133627398498
301,1.6837800225061247112775869859368
302,1.6844480478862677025047671531556
303,1.6851138663444686148121128350810
304,1.6857774924424628380326930405777
305,1.6864389405985799644240953391235
306,1.6870982250896244453409004847004
307,1.6877553600527222424957950537221
308,1.6884103594871409523106563134203
309,1.6890632372560794926970764444852
310,1.6897140070884276874877162209411
311,1.6903626825804993434972786872305
312,1.6910092771977363334242864239837
313,1.6916538042763850774202880030580
314,1.6922962770251472276804840767617
315,1.6929367085268038757807039421750
316,1.6935751117398146584856057112840
317,1.6942114994998893007165747376741
318,1.6948458845215369470110230723962
319,1.6954782793995904231214799269629
320,1.6961086966107054291011342443656
321,1.6967371485148385829005552872385
322,1.6973636473567004289982104563729
323,1.6979882052671869261961153168777
324,1.6986108342647883918156411500444
325,1.6992315462569776643701931151430
326,1.6998503530415757220394042824920
327,1.7004672663080975777988532199157
328,1.7010822976390756405023050346567
329,1.7016954585113655168765723787602
330,1.7023067602974306861999005066183
331,1.7029162142666074863465579313795
332,1.7035238315863514725287884353991
333,1.7041296233234655273845965182367
334,1.7047336004453079065273405009640
335,1.7053357738209845345861877251131
336,1.7059361542225216098860605343973
337,1.7065347523260213901128439687626
338,1.7071315787128022179170041223543
339,1.7077266438705188510657186703289
340,1.7083199581942691885898326207576
341,1.7089115319876831066110048798731
342,1.7095013754639959011075331661397
343,1.7100894987471059755203266459171
344,1.7106759118726167670199446580295
345,1.7112606247888647308860681965897
346,1.7118436473579308579123246074352
347,1.7124249893566392903162868520328
348,1.7130046604775398480025315348964
349,1.7135826703298780102290483314793
350,1.7141590284405498951467262936962
351,1.7147337442550443249464550483857
352,1.7153068271383716591129008538529
353,1.7158782863759786803005536178983
354,1.7164481311746509474482152169499
355,1.7170163706634029815576891802018
356,1.7175830138943544940712882899340
357,1.7181480698435958970428499535809
358,1.7187115474120423392593047074807
359,1.7192734554262720136142369166596
360,1.7198338026393576738174453402486
361,1.7203925977316831054762570942536
362,1.7209498493117510333213489544865
363,1.7215055659169770603642895150474
364,1.7220597560144746631597148630482
365,1.7226124280018294797214851751992
366,1.7231635902078617679484307318364
367,1.7237132508933799267591883927348
368,1.7242614182519218688601031097498
369,1.7248081004104888778884589145037
370,1.7253533054302676633066761765608
371,1.7258970413073434665662808734694
372,1.7264393159734031752252753442727
373,1.7269801372964284119520055991215
374,1.7275195130813829071133667570802
375,1.7280574510708848467367880411486
376,1.7285939589458756522901639718763
377,1.7291290443262769817215807383965
378,1.7296627147716391194044832644299
379,1.7301949777817825950312239992456
380,1.7307258407974297884619230692740
381,1.7312553112008293962171452182175
382,1.7317833963163708780345416886529
383,1.7323101034111935584116770028680
384,1.7328354396957853470985013164867
385,1.7333594123245747000636219275097
386,1.7338820283965164798576761631344
387,1.7344032949556674649902596919117
388,1.7349232189917554454006821121404
389,1.7354418074407425789946795781278
390,1.7359590671853801986462698482560
391,1.7364750050557553869033388957320
392,1.7369896278298329270735142453739
393,1.7375029422339901044905105397742
394,1.7380149549435429393657813154026
395,1.7385256725832667084214947063359
396,1.7390351017279104064980835519485
397,1.7395432489027047783736459632840
398,1.7400501205838639292729878715795
399,1.7405557231990790801968929357967
400,1.7410600631280087683856732919995
401,1.7415631467027615421940237890151
402,1.7420649802083718959581465323349
403,1.7425655698832722659706406646970
404,1.7430649219197589810304634421307
405,1.7435630424644496334063260115210
406,1.7440599376187379796386039575227
407,1.7445556134392434883082334354144
408,1.7450500759382530383767219856777
409,1.7455433310841576295953745314992
410,1.7460353848018866198930085454993
411,1.7465262429733337501952971171312
412,1.7470159114377785397146505588756
413,1.7475043959923041312248144320237
414,1.7479917023922080106321165856752
415,1.7484778363514098852802995189201
416,1.7489628035428531511094040776033
417,1.7494466095989027976461412852239
418,1.7499292601117369145714946055292
419,1.7504107606337360788922098878468
420,1.7508911166778656051641602775079
421,1.7513703337180546114882254551850
422,1.7518484171895711834328509267050
423,1.7523253724893914725805804464369
424,1.7528012049765663439974887705223
425,1.7532759199725819525679160943224
426,1.7537495227617178556314825100291
427,1.7542220185914001471604529145520
428,1.7546934126725496277853582594525
429,1.7551637101799289236912385570325
430,1.7556329162524814171380832576761
431,1.7561010359936694929162959164123
432,1.7565680744718092509328306685981
433,1.7570340367203970235059740538963
434,1.7574989277384387960154295847213
435,1.7579627524907703552956617276582
436,1.7584255159083760674974884203026
437,1.7588872228887044475369310130202
438,1.7593478782959795029573518595672
439,1.7598074869615085342947123415167
440,1.7602660536839874639512492856674
441,1.7607235832298008542504612035791
442,1.7611800803333201791484579039734
443,1.7616355496971999981497595651696
444,1.7620899959926666526641440959041
445,1.7625434238598088163545108691857
446,1.7629958379078609247278202745494
447,1.7634472427154866540673470268190
448,1.7638976428310556688548452883681
449,1.7643470427729214791531734848292
450,1.7647954470296925613799691864051
451,1.7652428600605042465790544569317
452,1.7656892862952842185708300691647
453,1.7661347301350173661096635690979
454,1.7665791959520063790783695180351
455,1.7670226880901317136963462114938
456,1.7674652108651062248682074444344
457,1.7679067685647291625372015214411
458,1.7683473654491359291209501776603
459,1.7687870057510461131587621817293
460,1.7692256936760094427539041430674
461,1.7696634334026475097961975136692
462,1.7701002290828944793091862060915
463,1.7705360848422353890150056195342
464,1.7709710047799402013765664043656
465,1.7714049929692975782360343994883
466,1.7718380534578455101643025000745
467,1.7722701902675980824874887992698
468,1.7727014073952733951112731990120
469,1.7731317088125151143655133875217
470,1.7735610984661151829552605732725
471,1.7739895802782319567228800647609
472,1.7744171581466080674562438541266
473,1.7748438359447833643152671174981
474,1.7752696175223104395753841075717
475,1.7756945067049616631910114971424
476,1.7761185072949402417715201525568
477,1.7765416230710856367989155916458
478,1.7769638577890780199510648359098
479,1.7773852151816406568339581721248
480,1.7778056989587406156711323296695
481,1.7782253128077863538396920561350
482,1.7786440603938257531028004737387
483,1.7790619453597399856479220015973
484,1.7794789713264360328506579310550
485,1.7798951418930393358581544247276
486,1.7803104606370811650554602860095
487,1.7807249311146875595255691196348
488,1.7811385568607644353739206843414
489,1.7815513413891820934606720600137
490,1.7819632881929569920916456301750
491,1.7823744007444329214303679139878
492,1.7827846824954601703704438821195
493,1.7831941368775726634871352523735
494,1.7836027673021641647848968525357
495,1.7840105771606617434839082941522
496,1.7844175698246997490872928316302
497,1.7848237486462899841342502833302
498,1.7852291169579920228602521603769
499,1.7856336780730811761244360687389
500,1.786037435285716236195714700129
501,1.786440391871102750611328115160
502,1.786842551085659283540808779648
503,1.787243916167178136125808465648
504,1.787644490334988373061417165288
505,1.788044276790114006401424115105
506,1.788443278715433070287822594558
507,1.788841499275835438340755245253
508,1.789238941618379027469099326632
509,1.789635608872442622907649319932
510,1.790031504149881381722729823785
511,1.790426630545178249992044260290
512,1.790820991135595198085247887031
513,1.791214588981322894141265816830
514,1.791607427125629496676862690445
515,1.791999508595008945231294547465
516,1.792390836399326964165437139104
517,1.792781413531965859274811018934
518,1.793171242969969897656548462783
519,1.793560327674188057979484656935
520,1.793948670589417013498608788847
521,1.794336274644541148551627531094
522,1.794723142752673890383248797641
523,1.795109277811296799276948649389
