Eigenstate,Potential Energy
1,0.500000000017417096439671648723484727
2,0.64623093776480430118020357791046583
3,0.73633761003892952606231060291966273
4,0.79966527850982570562468593090384639
5,0.8480465764905827283344004327945448
6,0.8870659987347242540527344691211307
7,0.9197208266798851208193383155463631
8,0.9477838467027330665594900604491879
9,0.9723835578093890635215817176651037
10,0.9942802141483270165702396350582038
11,1.0140093858605202314374394761153399
12,1.0319621682505513141867031806792567
13,1.0484326913841921385013076509968304
14,1.0636476529445585650324107704327296
15,1.0777854340462912183297826347775259
16,1.090988904105998038487621821026933
17,1.103374254303757080886195254549264
18,1.115037248589315036706148749108677
19,1.126057746786064268745324801624246
20,1.136503042224978889060269043885467
21,1.146430367826311703686258454807676
22,1.155888807258334193228449681290035
23,1.164920772873861066558404947739110
24,1.173563163110672351563596561371474
25,1.181848279287439740351103358210661
26,1.189804559411314308399731706410610
27,1.197457171140502328913532520569534
28,1.204828495143305096489102804318732
29,1.211938522300070854062953358787355
30,1.218805182545019348753997788329251
31,1.225444618998961042808576066795857
32,1.231871417966033421616524174594796
33,1.238098803057929036998152088103392
34,1.244138799958543658082805685392265
35,1.250002377002777836618907712839517
36,1.255699565709746315182324692945318
37,1.261239564606565158376536002551544
38,1.266630829048467744093121398852863
39,1.271881149243152102477126077072713
40,1.276997718291441306772735400176361
41,1.281987191739588346565528347662786
42,1.286855739883564312482619383362611
43,1.291609093859182376537113812516502
44,1.296252586383816036833466854385907
45,1.300791187877900526381867738443956
46,1.305229538581270003200213799319263
47,1.309571977185906526570874273480080
48,1.313822566429090460088205291273698
49,1.317985116026279398250495689095076
50,1.32206320326891999970870821067749
51,1.32606019156693014782193468940689
52,1.32997924717724364487855630435142
53,1.33382335432735952780322758566486
54,1.33759532891527696171970792612032
55,1.34129783094372117523285284480114
56,1.34493337582649133117228139265774
57,1.34850434468756226142495791016354
58,1.35201299375877480819616706502984
59,1.35546146296919556676597465170506
60,1.35885178380820231710835047379698
61,1.36218588653478720423758976418787
62,1.36546560679726872203496081999534
63,1.36869269172036166628945888573869
64,1.37186880551024174276579105114657
65,1.37499553462270667614099484893708
66,1.37807439253468832659804154299440
67,1.38110682415510802953978608407426
68,1.38409420990731121307883739258883
69,1.38703786951200467723273533634383
70,1.38993906549669165049043526795691
71,1.39279900645500103568533275411040
72,1.39561885007700901473077082796969
73,1.39839970596959817537074286574217
74,1.40114263828408047454610057209247
75,1.40384866816667925187380297297804
76,1.40651877604601594998172938194810
77,1.40915390377044480002367323413877
78,1.41175495660691293251907564322709
79,1.41432280511197655366998036284593
80,1.41685828688466570166335917961887
81,1.41936220821004075599042297720226
82,1.42183534560152242226113680862329
83,1.42427844724938818120254577792393
84,1.42669223438220389881344774066076
85,1.42907740254740001847431564887313
86,1.43143462281668589042210594828384
87,1.43376454292153832319973232056041
88,1.43606778832357706395433607376009
89,1.43834496322425641229699401553365
90,1.44059665151795895570726404332617
91,1.44282341769225596241527624958564
92,1.44502580767881067015497468417150
93,1.44720434965813845412649369237167
94,1.44935955482119492876756230762059
95,1.45149191809054188390481830581823
96,1.45360191880363913373951197498822
97,1.45569002136062601501245313873066
98,1.45775667583878339639839356430286
99,1.45980231857571358899086167472660
100,1.46182737272312920732245233578254
101,1.46383224877301272621106538849282
102,1.46581734505778290400152075513990
103,1.46778304822599632915910691267784
104,1.46972973369500508246118850716294
105,1.47165776608189843327612818528433
106,1.47356749961396572417504444515456
107,1.47545927851983951616652354772318
108,1.47733343740239882729002460408442
109,1.47919030159444370376953910755803
110,1.48103018749808994280402612922851
111,1.48285340290876692487260641127785
112,1.48466024732465207979903644769338
113,1.48645101224231997502590341890908
114,1.48822598143933525679263666448647
115,1.48998543124447822640887449028454
116,1.49172963079624350216648833027535
117,1.49345884229022050442681126704935
118,1.49517332121592347031404165646477
119,1.49687331658360499072950950908422
120,1.49855907114156122016648476568676
121,1.50023082158439864256100599087733
122,1.50188879875271336328141000463425
123,1.50353322782460170442724208361909
124,1.50516432849940320079956397201702
125,1.50678231517404752764158824475562
126,1.50838739711236169395097868206014
127,1.50997977860767325727878139386434
128,1.51155965913902272874006004072705
129,1.51312723352128626372318549152754
130,1.51468269204949135191748276012733
131,1.51622622063759281616085756713867
132,1.51775800095196145240820295933018
133,1.51927821053982586153749062101161
134,1.52078702295289674775150914873538
135,1.52228460786638484999079172430853
136,1.52377113119361998524290012879819
137,1.52524675519646537468960965076711
138,1.52671163859170781164297913972048
139,1.52816593665360212431565254774450
140,1.52960980131273294050248147822197
141,1.53104338125135220376059929086566
142,1.53246682199534281740797345233274
143,1.53388026600295014249123870424982
144,1.53528385275041589623650747494768
145,1.53667771881464480973791496937645
146,1.53806199795302653488759863145035
147,1.53943682118052708758486418349885
148,1.54080231684416515622896564339285
149,1.54215861069497507642560737224836
150,1.54350582595756011276011285024755
151,1.54484408339733196186640492263363
152,1.54617350138552677593630068963938
153,1.54749419596208665633698886253341
154,1.54880628089649051655250562353796
155,1.55010986774661255041527021641873
156,1.55140506591568617196371255681956
157,1.55269198270744447350192404245483
158,1.55397072337950901993481673263588
159,1.5552413911950906521843094154582
160,1.5565040874730686371962572652673
161,1.5577589116365066606291932446079
162,1.5590059612596651232962702448722
163,1.5602453321135645946297837421257
164,1.5614771182101550597332719402536
165,1.5627014118451395602088850976566
166,1.5639183036395027443187637769558
167,1.5651278825797915587699042031244
168,1.5663302360571907710060032935372
169,1.5675254499054383840668888496038
170,1.5687136084376206871012188976301
171,1.5698947944818871359632085885127
172,1.5710690894161229305212561909847
173,1.5722365732016146909791740853854
174,1.5733973244157450766939389300002
175,1.5745514202837503323928743981855
176,1.5756989367095704681129766186630
177,1.5768399483058253333696849463841
178,1.5779745284229457399212014569991
179,1.5791027491774860780439099376166
180,1.5802246814796493726876472250718
181,1.5813403950600474280667034073836
182,1.5824499584957237560416620689029
183,1.5835534392354623375356886763249
184,1.5846509036244064584909106949706
185,1.5857424169280094284577286162088
186,1.5868280433553381504059110226756
187,1.5879078460817533422241526687391
188,1.5889818872709818461917715402877
189,1.5900502280966047574793049218186
190,1.5911129287629770227216855767039
191,1.5921700485255977311813718781099
192,1.5932216457109474806693462518379
193,1.5942677777358111220362323029329
194,1.5953085011260992229798131240295
195,1.5963438715351861834907938290653
196,1.5973739437617786947992806370453
197,1.5983987717673289171049986193562
198,1.5994184086930065380321287392768
199,1.6004329068762425456240773649780
200,1.6014423178668586560388559653549
201,1.6024466924427933723236803041164
202,1.6034460806254380503798277186867
203,1.6044405316945936267995376254230
204,1.6054300942030596234362212654229
205,1.6064148159908653940197206272387
206,1.6073947441991566315132921267361
207,1.6083699252837430068375232621178
208,1.6093404050283211603655498848155
209,1.6103062285573787890168827334087
210,1.6112674403487913245485984219023
211,1.6122240842461185620000350040258
212,1.6131762034706114654127979154144
213,1.6141238406329335287136885631368
214,1.6150670377446116674438681971900
215,1.6160058362292158475585615545333
216,1.6169402769332814057475706735369
217,1.6178704001369780203116530100013
218,1.6187962455645343050373848820453
219,1.6197178523944212989990329663795
220,1.6206352592693073604077308415767
221,1.6215485043057823667901447307435
222,1.6224576251038684188544120908041
223,1.6233626587563106088666660323793
224,1.6242636418576629128284397288771
225,1.6251606105131717629893555561071
226,1.6260536003474608386278900245629
227,1.6269426465130257179383823099427
228,1.6278277836985402012153246601988
229,1.6287090461369814574699718619377
230,1.6295864676135786807072416476758
231,1.6304600814735870451169695991640
232,1.6313299206298973680837877706498
233,1.6321960175704764665033797309550
234,1.6330584043656543524542088748806
235,1.6339171126752514393077659027813
236,1.6347721737555554570284648673698
237,1.6356236184661516967727268568251
238,1.6364714772766083157805867924749
239,1.6373157802730221381215962463777
240,1.6381565571644271046933240511185
241,1.6389938372890696538018247517672
242,1.6398276496205538882547355857785
243,1.6406580227738605597199193906087
244,1.6414849850112415585654947476841
245,1.6423085642479942822712255493697
246,1.6431287880581184009578250500952
247,1.6439456836798564017984505538360
248,1.6447592780211254928451081711143
249,1.6455695976648358347638127258088
250,1.6463766688741054845774837377590
251,1.6471805175973699508216957218504
252,1.6479811694733891580063311303481
253,1.6487786498361568919794295928966
254,1.6495729837197123824432635695983
255,1.6503641958628579020452122144948
256,1.6511523107137824668030978379198
257,1.6519373524345980286023986103320
258,1.6527193449057846038170405029075
259,1.6534983117305511408970916840278
260,1.6542742762391125126207381704299
261,1.6550472614928829460605457988039
262,1.6558172902885906149888550506017
263,1.6565843851623122446019109518493
264,1.6573485683934331787134422603439
265,1.6581098620085314339427357936759
266,1.6588682877851879079271701730286
267,1.6596238672557259540885261643000
268,1.6603766217108803559495980914493
269,1.6611265722033999701975325323947
270,1.6618737395515797619153572503332
271,1.6626181443427315152152983412237
272,1.6633598069365871981150389378522
273,1.6640987474686424240481909475397
274,1.6648349858534372183033178341382
275,1.6655685417877779642476038626651
276,1.6662994347538988069639846921238
277,1.6670276840225699975921562053181
278,1.6677533086561449322973677985491
279,1.6684763275115573883118691022017
280,1.6691967592432610498948322922002
281,1.6699146223061192130141069329636
282,1.6706299349582421649980833015087
283,1.6713427152637754515840741295511
284,1.6720529810956361878785917668968
285,1.6727607501382042204698163474826
286,1.6734660398899641654178476880412
287,1.6741688676661033813935879731109
288,1.6748692506010622797223471056747
289,1.6755672056510416193762470193931
290,1.6762627495964675194225338951251
291,1.6769558990444120298481437471532
292,1.6776466704309721456467351161091
293,1.6783350800236111699227663825392
294,1.6790211439234574629067838851675
295,1.6797048780675626640068971113967
296,1.6803862982311269724359852767858
297,1.6810654200296814181190784410082
298,1.6817422589212364396121970180855
299,1.6824168302083935718673390932055
300,1.6830891490404219944265838604685
301,1.6837592304153003514600500777379
302,1.6844270891817259365575545538395
303,1.6850927400410884153795257499318
304,1.6857561975494116636737573233666
305,1.6864174761192651491610574087013
306,1.6870765900216441204866340498554
307,1.6877335533878157851871643787025
308,1.6883883802111389550991117700542
309,1.6890410843488532484703127844604
310,1.6896916795238381839180617758562
311,1.6903401793263457611332640685079
312,1.6909865972157040414598153524767
313,1.6916309465219931210947167445734
314,1.6922732404476953011794560122599
315,1.6929134920693187744220625226943
316,1.6935517143389962038889734163459
317,1.6941879200860557325679847425183
318,1.6948221220185697749444846474160
319,1.6954543327248787321491393132231
320,1.6960845646750896319324107239284
321,1.6967128302225536123968125805282
322,1.6973391416053183639144299613386
323,1.6979635109475590432658037201804
324,1.6985859502609866371362707927785
325,1.6992064714462355369474995290887
326,1.6998250862942285622474356326107
327,1.7004418064875222534106331178520
328,1.7010566436016296228405034922060
329,1.7016696091063253395281834655845
330,1.7022807143669297786310516840781
331,1.7028899706455733746433745449080
332,1.7034973891024423393795080912156
333,1.7041029807970061233039546892725
334,1.7047067566892248042100469977414
335,1.7053087276407407181584045142234
336,1.7059089044160503907053404297435
337,1.7065072976836596406453918541713
338,1.7071039180172229150985656310117
339,1.7076987758966629204275127925939
340,1.7082918817092766403032018892997
341,1.7088832457508234544751101720605
342,1.7094728782265978553733618653394
343,1.7100607892524864003103599722730
344,1.7106469888560088929672376776281
345,1.7112314869773456134772403656264
346,1.7118142934703480718792432838373
347,1.7123954181035368502780370179553
348,1.7129748705610833454136091432022
349,1.7135526604437789565419591047478
350,1.7141287972699892609464226389644
351,1.7147032904765952646611861247338
352,1.7152761494199214107507958547065
353,1.7158473833766496295023254649770
354,1.7164170015447208449849329259464
355,1.7169850130442243032398991612600
356,1.7175514269182729318683998079287
357,1.7181162521338679700410617804888
358,1.7186794975827521129158400059631
359,1.7192411720822469155887435954398
360,1.7198012843760833944823730956072
361,1.7203598431352175710277437793807
362,1.7209168569586374392256953409127
363,1.7214723343741559526877810902030
364,1.7220262838391950551375712465936
365,1.7225787137415589907269537719169
366,1.7231296324001957718242436427374
367,1.7236790480659496962728075262588
368,1.7242269689223017028370114144998
369,1.7247734030861021973695263329197
370,1.7253183586082920628638863886209
371,1.7258618434746147066903709974912
372,1.7264038656063181014836026320972
373,1.7269444328608467863867255727018
374,1.7274835530325281371210923644699
375,1.7280212338532435964408396072916
376,1.7285574829930963211774497911546
377,1.7290923080610670350747890216657
378,1.7296257166056612548154353547189
379,1.7301577161155497290300229330804
380,1.7306883140201988470437610392423
381,1.7312175176904938927856190742082
382,1.7317453344393522620198365596838
383,1.7322717715223313175506366804506
384,1.7327968361382258460902633497470
385,1.7333205354296587380342968677603
386,1.7338428764836655487855389954019
387,1.7343638663322686909509403954958
388,1.7348835119530451941975416747944
389,1.7354018202696887074397914678487
390,1.7359187981525629324504875836067
391,1.7364344524192468058212146130884
392,1.7369487898350750376344622811447
393,1.7374618171136714803178860298589
394,1.7379735409174739087618575443437
395,1.7384839678582530685563600070535
396,1.7389931044976256431982347731338
397,1.7395009573475607701596885883468
398,1.7400075328708801139349732128074
399,1.7405128374817500618394502512691
400,1.7410168775461703425005092952290
401,1.7415196593824551159425229896522
402,1.7420211892617072804641786822583
403,1.7425214734082888170300109308201
404,1.7430205180002850642474537464745
405,1.7435183291699603893563375939611
406,1.7440149130042113642472289758674
407,1.7445102755450145632095457639894
408,1.7450044227898664855853863519164
409,1.7454973606922184643871816149849
410,1.7459890951619090753385098632628
411,1.7464796320655883063375862296512
412,1.7469689772271370699134729794033
413,1.7474571364280831377156462223777
414,1.7479441154080099208635332422057
415,1.7484299198649623800993581295671
416,1.7489145554558464953581885162432
417,1.7493980277968251432228508083380
418,1.7498803424637075454810124349330
419,1.7503615049923365672764781094567
420,1.7508415208789688467578554952218
421,1.7513203955806517083887123469760
422,1.7517981345155961415021812599641
423,1.7522747430635436802209345094299
424,1.7527502265661307984472169563757
425,1.7532245903272471992628409919611
426,1.7536978396133916055595135069110
427,1.7541699796540225365082974301945
428,1.7546410156419040835351820136926
429,1.7551109527334505981694188413806
430,1.7555797960490631538484795992661
431,1.7560475506734652853120865067257
432,1.7565142216560351550771938197462
433,1.7569798140111294848681372162863
434,1.7574443327184103499160093245910
435,1.7579077827231626597778832459557
436,1.7583701689366102266422494483059
437,1.7588314962362285824656167332803
438,1.7592917694660535269799629530399
439,1.7597509934369860878496382138146
440,1.7602091729270949641657469273596
441,1.7606663126819136131042394579964
442,1.7611224174147355433676046583397
443,1.7615774918069074630781010772348
444,1.7620315405081149014660762937415
445,1.7624845681366696349838299011320
446,1.7629365792797899421655418024390
447,1.7633875784938808563729880079442
448,1.7638375703048076345985567639278
449,1.7642865592081702828005728161450
450,1.7647345496695712901812407755062
451,1.7651815461248840754703551777739
452,1.7656275529805149865320183039108
453,1.7660725746136645963336901458678
454,1.7665166153725846841942433651568
455,1.7669596795768345261506816894647
456,1.7674017715175317914089164360687
457,1.7678428954576027405520042118370
458,1.7682830556320281213682285055151
459,1.7687222562480872761888673017671
460,1.7691605014856001030437377957512
461,1.7695977954971647203238089782219
462,1.7700341424083940479651396861206
463,1.7704695463181499088890197179144
464,1.7709040112987728115669207210533
465,1.7713375413963113824090058715038
466,1.7717701406307485786351659053399
467,1.7722018129962239621069457239328
468,1.7726325624612570497221572915875
469,1.7730623929689642170310050716161
470,1.7734913084372766795742876751343
471,1.7739193127591538190109611562858
472,1.7743464098027961516065843858379
473,1.7747726034118532899443106188320
474,1.7751978974056344018106238671316
475,1.7756222955793100889692096493090
476,1.7760458017041181995855926362188
477,1.7764684195275639072561259588233
478,1.7768901527736187325861957113455
479,1.7773110051429173966569101482285
480,1.7777309803129529009165361706825
481,1.7781500819382683843254540717717
482,1.7785683136506493264947635397478
483,1.7789856790593114767679598563475
484,1.7794021817510873289522692106908
485,1.7798178252906126185259441628837
486,1.7802326132205074270646395744628
487,1.7806465490615587426176066054118
488,1.7810596363128990724681122447838
489,1.7814718784521843363244455367186
490,1.7818832789357689029314837236275
491,1.7822938411988799042482232777590
492,1.7827035686557894152379668858882
493,1.7831124646999844741379586458229
494,1.7835205327043360371037420944075
495,1.7839277760212650595766798239136
496,1.7843341979829089486466175826909
497,1.7847398019012840717782969199474
498,1.7851445910684482670004061682426
499,1.7855485687566608517212694033478
500,1.785951738218542260483147586143
501,1.786354102687229057503882620270
502,1.786755665376531778992535786870
503,1.787156429481087073167983269399
504,1.787556398176511981616614278573
505,1.787955574619553209248933281158
506,1.788353961948237112733761263733
507,1.788751563282018255223718965665
508,1.789148381721926167113826044110
509,1.789544420350708543502262225519
510,1.789939682232976931365425187861
511,1.790334170415348137295941869287
512,1.790727887926585255769870520252
513,1.791120837777736933449653969761
514,1.791513022962275545754655990161
515,1.791904446456234659766159676581
516,1.792295111218343993624709588015
517,1.792685020190162946978911238227
518,1.793074176296214487692954139656
519,1.793462582444116176577172126218
520,1.793850241524711186966856153733
521,1.794237156412196114198817139328
522,1.794623329964249851008579711623
523,1.795008765022159965826605480966
