Eigenstate,Potential Energy
1,0.500000000019618651408245850686293597
2,0.64623093777917488974803199020973866
3,0.73633761008114190221607682466456165
4,0.79966527859774907057328854494676664
5,0.8480465766428835592779462267508763
6,0.8870659989703954411840023988624793
7,0.9197208270180723994867722636868887
8,0.9477838471626625613221166602409911
9,0.9723835584103335308605658124188465
10,0.9942802149095886514998410854307827
11,1.0140093868014212716039670036831596
12,1.0319621693904286174113354170121187
13,1.0484326927423939234437865450226017
14,1.0636476545404423966978271482910603
15,1.0777854358992227445297732307664661
16,1.090988906235350197978967596086174
17,1.103374256728909618295172178917326
18,1.115037251329654223157421130555590
19,1.126057749860982764158640535742854
20,1.136503045653875704351991705323129
21,1.146430371628592234928321576840791
22,1.155888811453410308627441646850575
23,1.164920777481151232877050295911434
24,1.173563168149601790457439090269728
25,1.181848284777440607720187785109009
26,1.189804565371825891680651466335932
27,1.197457177590971258527376124308482
28,1.204828502103185568586770041316939
29,1.211938529788824862383328878966479
30,1.218805190582116923907550573955255
31,1.225444627603880497670001377201541
32,1.231871427158261601790126803302215
33,1.238098812856961575533305023854449
34,1.244138810383885233781351449862232
35,1.250002388073942435404241149584714
36,1.255699577446257494100120234245382
37,1.261239577027956311876262823800288
38,1.266630842174282372302512868763104
39,1.271881163092944081232286352842013
40,1.276997732884775159207328198714972
41,1.281987207096039516095586881379455
42,1.286855756022719437050547417844204
43,1.291609110800639564000651694460411
44,1.296252604147185141403726587970935
45,1.300791206482803426029754696469464
46,1.305229558047340877963242970014782
47,1.309571997532792137703013425697817
48,1.313822587676450430004326059822941
49,1.317985138193786491224563522225104
50,1.32206322637626040329125421152624
51,1.32606021563380375494781626222522
52,1.32997927222336433664067109577497
53,1.33382338037245545687185353024746
54,1.33759535597909083639058494465204
55,1.34129785904601054409009773330870
56,1.34493340498702886835480294190340
57,1.34850437492613605248727710271092
58,1.35201302509518863655650739572294
59,1.35546149542326920073618617719741
60,1.35885181739977179750172523688303
61,1.36218592128370513255195212462773
62,1.36546564272340454920956587338342
63,1.36869272884360198203526120162175
64,1.37186884385049056546954899749878
65,1.37499557419988574334449298942907
66,1.37807443336873738605442089986470
67,1.38110686626598513084961979180104
68,1.38409425331499299990916247425831
69,1.38703791423648668012277006387943
70,1.38993911155798858024816854539547
71,1.39279905387314707737960026152952
72,1.39561889887205812228380233527141
73,1.39839975616162436675651565867043
74,1.40114268989317812760014053711127
75,1.40384872121296340072036016053682
76,1.40651883054962258208452536207854
77,1.40915395975153115386663353741923
78,1.41175501408565779592370231589104
79,1.41432286410858056275621035627137
80,1.41685834741935164046093478423921
81,1.41936227030305385670798753737663
82,1.42183540927313066622041842290259
83,1.42427851251988260044514147282666
84,1.42669230127189887838786211476566
85,1.42907747107663359941104118471403
86,1.43143469300582007340465084634297
87,1.43376461479095937293961599595945
88,1.43606786189369581427818258498700
89,1.43834503851550857195396513393104
90,1.44059672855080541490515689254095
91,1.44282349648718310009371498249265
92,1.44502588825633066200421139975118
93,1.44720443203878958136042273330707
94,1.44935963902554188765962578306707
95,1.45149200413917609609557120666801
96,1.45360200671717905732468364173230
97,1.45569011115971745642042336247665
98,1.45775676754409982306605856707047
99,1.45980241220795644284695615032655
100,1.46182746830302821908744866736716
101,1.46383234632132623052283209762439
102,1.46581744459529815537601331891484
103,1.46778314977352981879539165351880
104,1.46972983727340285590019867171503
105,1.47165787171203640892258250079684
106,1.47356760731675001269204389056344
107,1.47545938831620674075239632907202
108,1.47733354931331644484702954469985
109,1.47919041564091032697413197053485
110,1.48103030370113566308842014953541
111,1.48285352128945363632743385518940
112,1.48466036790407380400697742059116
113,1.48645113504160318683619103634671
114,1.48822610647963921104642496126384
115,1.48998555854699528562549736280330
116,1.49172976038219946520070450802541
117,1.49345897418087493610718042686680
118,1.49517345543257003207264769487495
119,1.49687345314757177223328130811601
120,1.49855921007421107196045195964859
121,1.50023096290712950973386061904576
122,1.50188894248695862016381523817682
123,1.50353337399183049033338263870418
124,1.50516447712112075682249531254715
125,1.50678246627179553451299646832926
126,1.50838755070771861097602468140954
127,1.50997993472225466235676044624968
128,1.51155981779448165948166937261477
129,1.51312739473931355967525117926256
130,1.51468285585181599790605349378718
131,1.51622638704598228676364543158968
132,1.51775816998822205756740558487997
133,1.51927838222580309332407812520854
134,1.52078719731047562829214470797149
135,1.52228478491749028056860859838608
136,1.52377131096021709658340432881575
137,1.52524693770055987844306712114624
138,1.52671182385534635307469219544300
139,1.52816612469887263621560270657330
140,1.52960999216176499832588282001035
141,1.53104357492631738201096216493608
142,1.53246701851845504727434997903273
143,1.53388046539646607075139394444520
144,1.53528405503663524543782155064564
145,1.53667792401591073966788531579229
146,1.53806220609172600534588066639683
147,1.53943703227909122246889516692125
148,1.54080253092506960894520819488430
149,1.54215882778074039663858276300669
150,1.54350604607075211449146563707693
151,1.54484430656056209295623976217721
152,1.54617372762145248887923344755108
153,1.54749442529341178050529259463531
154,1.54880651334596563181888955996962
155,1.55011010333703536218787261185789
156,1.55140530466990188764598074158993
157,1.55269222464834618039010294807300
158,1.55397096853003806456588509170714
159,1.5552416395782370211472236815182
160,1.5565043391118713394195092003089
161,1.5577591665540541111577003344815
162,1.5590062194790955285707543677958
163,1.5602455936580663392818205679834
164,1.5614773831029670949093205776803
165,1.5627016801095517934366646700747
166,1.5639185752988564309294243861644
167,1.5651281576574796948895348210081
168,1.5663305145766584881300920153115
169,1.5675257318901833452314630987186
170,1.5687138939111934846644272529755
171,1.5698950834678916910112431904983
172,1.5710693819382168939125789435277
173,1.5722368692835098460410950474206
174,1.5733976240812077435856932691128
175,1.5745517235566017741494353697429
176,1.5756992436136872983839107441680
177,1.5768402588651399258675134223536
178,1.5779748426614466395936995746227
179,1.5791030671192184139850158933344
180,1.5802250031487152728016467903506
181,1.5813407204806064355004768511613
182,1.5824502876919932473998942085129
183,1.5835537722317179428940204203685
184,1.5846512404449824832221047664022
185,1.5857427575972992768860638686390
186,1.5868283878977947513050535297362
187,1.5879081945218895761738881374384
188,1.5889822396333709748091080685024
189,1.5900505844058808545395140297703
190,1.5911132890438354071849705242640
191,1.5921704128027954021409697312712
192,1.5932220140093035542369633687785
193,1.5942681500802072701808164313352
194,1.5953088775414801143357787169162
195,1.5963442520465599261519368509501
196,1.5973743283942172811147021724508
197,1.5983991605459686704934912521067
198,1.5994188016430485618315940619547
199,1.6004333040229531739926202141599
200,1.6014427192355699069243733066849
201,1.6024470980589034025188178427060
202,1.6034464905144116126793414039958
203,1.6044409458819625292771858950434
204,1.6054305127144231908584441407689
205,1.6064152388518909314134740286306
206,1.6073951714355798899055497464848
207,1.6083703569213686511840269045416
208,1.6093408410930232396865967193789
209,1.6103066690751012087579740849275
210,1.6112678853455483211839569940041
211,1.6122245337479951798971180185508
212,1.6131766575037640359760147735321
213,1.6141242992235901518257384991609
214,1.6150675009190726952231855525084
215,1.6160063040138543704515126454257
216,1.6169407493545437409741557993391
217,1.6178708772213842026836399191600
218,1.6187967273386785801678783505110
219,1.6197183388849726189227265547047
220,1.6206357505030098816310741923073
221,1.6215490003094559507909291791627
222,1.6224581259044091350503676831962
223,1.6233631643806912400728012456680
224,1.6242641523329334632229801246484
225,1.6251611258664599686083797966522
226,1.6260541206059726804087614900605
227,1.6269431717040459373323076702247
228,1.6278283138494328183895715644573
229,1.6287095812751902921203019423573
230,1.6295870077666278755013418390415
231,1.6304606266690815917898487547277
232,1.6313304708955236362061689380392
233,1.6321965729340027349443473404928
234,1.6330589648549313435595355680057
235,1.6339176783182128558154313288125
236,1.6347727445802185217430843302935
237,1.6356241945006176950208197251050
238,1.6364720585490631406686615938124
239,1.6373163668117368386193200171958
240,1.6381571489977584365641030333294
241,1.6389944344454606334034091136617
242,1.6398282521285343492324756211161
243,1.6406586306620477126156283893712
244,1.6414855983083405533649703779915
245,1.6423091829827987739136406599725
246,1.6431294122595111178304400960642
247,1.6439463133768097172402134768648
248,1.6447599132427019996829195742313
249,1.6455702384401889229054613545987
250,1.6463773152324799216852896558668
251,1.6471811695681024660913226287858
252,1.6479818270859090290751718041482
253,1.6487793131199865349893092785786
254,1.6495736527044679452823958904436
255,1.6503648705782498607944343849960
256,1.6511529911896162254116928287024
257,1.6519380387007745218190347765171
258,1.6527200369923009034014104515886
259,1.6534990096675010651382275771169
260,1.6542749800566872391880421306302
261,1.6550479712213716282138242675369
262,1.6558180059583810011738710499425
263,1.6565851068038913014581308452031
264,1.6573492960373877175209267411951
265,1.6581105956855487405352961793422
266,1.6588690275260563760990902078061
267,1.6596246130913357225224796769111
268,1.6603773736722239486934882423121
269,1.6611273303215729407182861345750
270,1.6618745038577813407578695837019
271,1.6626189148682652612949913780877
272,1.6633605837128616536727391282116
273,1.6640995305271717732961668276067
274,1.6648357752258419497916982975049
275,1.6655693375057855369804815871753
276,1.6663002368493443202948362641776
277,1.6670284925273968649284720728546
278,1.6677541236024055586445253830669
279,1.6684771489314138516866036510121
280,1.6691975871689857866389028933837
281,1.6699154567700957070389876376008
282,1.6706307759929656409917073738680
283,1.6713435629018535722110499461220
284,1.6720538353697897550054137675679
285,1.6727616110812678804469853853116
286,1.6734669075348871184508828506105
287,1.6741697420459500950355078923934
288,1.6748701317490132065200446204083
289,1.6755680936003939187038232145270
290,1.6762636443806357835347232044918
291,1.6769568006969290141872612364521
292,1.6776475789854895034368743873385
293,1.6783359955139001910852648220369
294,1.6790220663834098173313575417889
295,1.6797058075311911492128616874174
296,1.6803872347325662656584696093698
297,1.6810663636031888328554715835269
298,1.6817432096011926866642032296199
299,1.6824177880293035249144278178907
300,1.6830901140369154601668570302338
301,1.6837602026221328443548904694776
302,1.6844280686337794582166925239732
303,1.6850937267733722386235737722511
304,1.6857571915970631213113485323417
305,1.6864184775175504275182670786969
306,1.6870775988059590577265911868046
307,1.6877345695936866744580723385659
308,1.6883894038742233525492636138610
309,1.6890421155049407861688995793556
310,1.6896927182088513877211010975406
311,1.6903412255763408735340650162454
312,1.6909876510668718494640193544639
313,1.6916320080106597891600210716537
314,1.6922743096103232092606279993550
315,1.6929145689425073611622289932484
316,1.6935527989594828149982932167606
317,1.6941890124907164744315767878432
318,1.6948232222444203735012774926261
319,1.6954554408090753970843132283372
320,1.6960856806549299262259283318678
321,1.6967139541354773272711685499920
322,1.6973402734889083992251716021829
323,1.6979646508395422933784870643707
324,1.6985870981992348823342141868467
325,1.6992076274687663404148876148124
326,1.6998262504392061726727036839142
327,1.7004429787932585132555766030550
328,1.7010578241065848823208672471242
329,1.7016707978491093763519069708651
330,1.7022819113863027235408011910734
331,1.7028911759804466428101985055969
332,1.7034986027918795676952293181712
333,1.7041042028802241136200120926557
334,1.7047079872055944725709645438713
335,1.7053099666297880500787008441311
336,1.7059101519174574025388512829534
337,1.7065085537372653470966376515422
338,1.7071051826630243029260764227405
339,1.7077000491748159283895577710171
340,1.7082931636600971453967664959909
341,1.7088845364147882645194158217163
342,1.7094741776443457079897588338064
343,1.7100620974648189683509041024915
344,1.7106483059038917964443843583360
345,1.7112328129019094380481522798123
346,1.7118156283128893939381866072863
347,1.7123967619055192687110413155541
348,1.7129762233641385200699566242957
349,1.7135540222897076534777662637618
350,1.7141301682007624044957840830809
351,1.7147046705343549963910338041829
352,1.7152775386469821553562109050071
353,1.7158487818154991676991490524286
354,1.7164184092380213934576990303157
355,1.7169864300348136017029471075813
356,1.7175528532491653372990819320361
357,1.7181176878482555581442062841064
358,1.7186809427240057868791841188441
359,1.7192426266939175221898253691461
360,1.7198027485019028476076128164444
361,1.7203613168190999826651644225817
362,1.7209183402446802579934064167213
363,1.7214738273066411099606168199616
364,1.7220277864625901188352105685046
365,1.7225802261005183268270688031226
366,1.7231311545395617136650942271006
367,1.7236805800307537217101436249505
368,1.7242285107577656193208801356925
369,1.7247749548376393350069833100897
370,1.7253199203215084755343061707193
371,1.7258634151953103812809072476205
372,1.7264054473804881753125082397982
373,1.7269460247346827728833301058474
374,1.7274851550524191598316546247150
375,1.7280228460657776314299761103368
376,1.7285591054450614478959937234046
377,1.7290939407994526957650470799660
378,1.7296273596776595225257258830335
379,1.7301593695685565843111257126246
380,1.7306899779018154634005357652069
381,1.7312191920485279309575685182264
382,1.7317470193218191731654017802993
383,1.7322734669774556554103333568469
384,1.7327985422144425882048352456650
385,1.7333222521756146160946286648159
386,1.7338446039482203881917519783685
387,1.7343656045644967596588796373073
388,1.7348852610022365609316351512189
389,1.7354035801853506093520363890125
390,1.7359205689844211523057964276649
391,1.7364362342172470587908079205456
392,1.7369505826493843677787300919246
393,1.7374636209946796668420115915808
394,1.7379753559157948821274480723579
395,1.7384857940247263365337404029199
396,1.7389949418833177269443744877971
397,1.7395028060037666504078609563801
398,1.7400093928491246873831109958095
399,1.7405147088337896078246253968249
400,1.7410187603239940000483458143238
401,1.7415215536382863712806530409094
402,1.7420230950480054650902544680949
403,1.7425233907777506164252275458054
404,1.7430224470058460373275623824013
405,1.7435202698647964987533094678212
406,1.7440168654417405175150268972439
407,1.7445122397788981650489637849924
408,1.7450063988740110011835983374085
409,1.7454993486807769939684047483909
410,1.7459910951092829400235488428993
411,1.7464816440264286454106125074105
412,1.7469710012563464495954395149817
413,1.7474591725808171715449094421696
414,1.7479461637396789017849959001061
415,1.7484319804312329243645214211275
416,1.7489166283126431983397411843941
417,1.7494001130003322472479941401093
418,1.7498824400703706197890889694591
419,1.7503636150588642002075634478405
420,1.7508436434623343502798275888706
421,1.7513225307380948350711777512681
422,1.7518002823046248140475158853881
423,1.7522769035419357336628675797407
424,1.7527523997919357351290007924438
425,1.7532267763587879567081664519044
426,1.7537000385092663373502227128024
427,1.7541721914731064062841819191275
428,1.7546432404433510722326170439085
429,1.7551131905766953246161489371994
430,1.7555820469938227088336450672659
431,1.7560498147797410792514651805113
432,1.7565164989841147793948120674696
433,1.7569821046215885872168080222816
434,1.7574466366721145233605596506054
435,1.7579101000812693460659704010118
436,1.7583724997605706336888341605636
437,1.7588338405877896161790290594005
438,1.7592941274072597375578686698245
439,1.7597533650301816306755112148253
440,1.7602115582349255754368291275417
441,1.7606687117673286003241651654973
442,1.7611248303409897908376765377125
443,1.7615799186375634525227184102171
444,1.7620339813070447479293233476695
445,1.7624870229680571381353739188181
446,1.7629390482081326531557753653903
447,1.7633900615839921603785222067847
448,1.7638400676218188492007186965200
449,1.7642890708175327723409134246312
450,1.7647370756370585962397632672078
451,1.7651840865165940636136870007696
452,1.7656301078628720094798699549242
453,1.7660751440534216736939144876727
454,1.7665191994368256989184294441165
455,1.7669622783329764378632203683659
456,1.7674043850333268667647578727383
457,1.7678455238011408007796294872456
458,1.7682856988717388071557067423918
459,1.7687249144527423300731749700580
460,1.7691631747243156694647684629052
461,1.7696004838394036635061047447766
462,1.7700368459239682877924508492095
463,1.7704722650772227749381216422727
464,1.7709067453718614154694454471762
465,1.7713402908542890087112188608915
466,1.7717729055448470943276313287420
467,1.7722045934380362449980382670760
468,1.7726353585027394358311439336477
469,1.7730652046824389671779736014289
470,1.7734941358954344653463839377466
471,1.7739221560350562282865368382382
472,1.7743492689698782138200554507210
473,1.7747754785439260212773453219340
474,1.7752007885768873704965187113318
475,1.7756252028643140008999273705294
476,1.7760487251778275044124882132780
477,1.7764713592653194251777324389332
478,1.7768931088511503020182699378877
479,1.7773139776363465429824524431126
480,1.7777339692987955265152477049810
481,1.7781530874934374800841866703224
482,1.7785713358524577050032109694219
483,1.7789887179854745274055784236912
484,1.7794052374797257950747881848727
485,1.7798208979002553969620502192485
486,1.7802357027900943901358047746983
487,1.7806496556704435828965379812488
488,1.7810627600408521704929779563387
489,1.7814750193793956514891984465685
490,1.7818864371428508877744050049315
491,1.7822970167668704423637657725926
492,1.7827067616661547830390498784235
493,1.7831156752346223266985437128274
494,1.7835237608455784183137236151456
495,1.7839310218518814368444257921330
496,1.7843374615861092723863614233831
497,1.7847430833607218599224047082352
498,1.7851478904682237147794818551460
499,1.7855518861813239669572437470601
500,1.785955073753096024643842712564
501,1.786357456417132612769644580433
502,1.786759037387703641589053461708
503,1.787159819859908373221265168438
504,1.787559807009829729790182331001
505,1.787959001994683590425034789889
506,1.788357407952968807004190755306
507,1.788755028004615786458115157183
508,1.789151865251133279377023090617
509,1.789547922775751605594820286203
510,1.789943203643568369764789667182
511,1.790337710901689897778591467706
512,1.790731447579372293998211290595
513,1.791124416688160734810753472516
514,1.791516621222027674740507745216
515,1.791908064157510339189370230986
516,1.792298748453845713966058900185
517,1.792688677053104106167189103819
518,1.793077852880323061620324264890
519,1.793466278843638420657423896160
520,1.793853957834415369046778889709
521,1.794240892727376279137141818615
522,1.794627086380729617239798830475
523,1.795012541636296354231467885712
