Eigenstate,Potential Energy
1,0.500000000020398974629437742899869084
2,0.64623093778426842886205176329359447
3,0.73633761009610374312777806267775813
4,0.79966527862891282189767321308243379
5,0.8480465766968654326720673911164790
6,0.8870659990539273629791535904051352
7,0.9197208271379404961727375733804580
8,0.9477838473256814833219876901133488
9,0.9723835586233344927331132178527318
10,0.9942802151794133430848083077123435
11,1.0140093871349185329270494608788565
12,1.0319621697944525219475466053783695
13,1.0484326932238026280850543982486786
14,1.0636476551060974329488866360944077
15,1.0777854365559885758777232701595821
16,1.090988906990093944449248523340847
17,1.103374257588500889749700567033538
18,1.115037252300965025507724090082126
19,1.126057750950887455796952538962483
20,1.136503046869250987998043760896211
21,1.146430372976317174986367866996644
22,1.155888812940366367270749857520848
23,1.164920779114222320118513690216910
24,1.173563169935674324829764411882160
25,1.181848286723403585120230289300323
26,1.189804567484570960579530142878022
27,1.197457179877392800205291527838193
28,1.204828504570180781379641066551427
29,1.211938532443293849167265351245437
30,1.218805193430962782223365955977888
31,1.225444630654009412021485662133019
32,1.231871430416582937749075854595776
33,1.238098816330387975360020907546355
34,1.244138814079332713327651387705532
35,1.250002391998330482111333147464176
36,1.255699581606509165939229641863598
37,1.261239581430998337107959609410348
38,1.266630846827045249953028891414866
39,1.271881168002362182203015945338849
40,1.276997738057786827948157675983743
41,1.281987212539587172784424835740362
42,1.286855761743749680231014317274641
43,1.291609116806103273637755222775886
44,1.296252610444037582323846920332329
45,1.300791213078004351716659327278201
46,1.305229564947854634686348502739410
47,1.309572004745587768957878597053821
48,1.313822595208501781248531102509467
49,1.317985146052072314894812055154909
50,1.32206323456776446408980695229271
51,1.32606022416551493538829722813301
52,1.32997928110227674284494889441866
53,1.33382338960556852461111562086965
54,1.33759536557340943736494308882870
55,1.34129786900854509244212572366613
56,1.34493341532479542741331389751565
57,1.34850438564615644173844952938235
58,1.35201303620449053884015824176826
59,1.35546150692888626966559387983170
60,1.35885182930874376510594540428103
61,1.36218593360307791714002420798251
62,1.36546565546023036345643250064011
63,1.36869274200493944128957930130632
64,1.37186885744340479628389732843770
65,1.37499558823144849222876720101561
66,1.37807444784602712845346725600270
67,1.38110688119608718034638154549773
68,1.38409426870499961765482225929182
69,1.38703793009349718449555568236970
70,1.38993912788910945674265426779966
71,1.39279907068549208872848724888610
72,1.39561891617274841881429404746839
73,1.39839977395778859698353283095769
74,1.40114270819195254905872823127820
75,1.40384874002149199103974600806829
76,1.40651884987505715030637545789124
77,1.40915397960103145201014733269971
78,1.41175503446639163080025966890181
79,1.41432288502772390803635925041575
80,1.41685836888408874899657847902611
81,1.41936229232057737311269103783951
82,1.42183543185064173971081126853182
83,1.42427853566459099794645168886494
84,1.42669232499102309790666733127978
85,1.42907749537740098367836712987002
86,1.43143471789546692379259054330534
87,1.43376464027673106365470483950828
88,1.43606788798284690683478146572374
89,1.43834506521530292993095173298985
90,1.44059675586851631898926159127925
91,1.44282352443009336341288316365675
92,1.44502591683173274575439131767577
93,1.44720446125398571072921816530376
94,1.44935966888784416805028900986340
95,1.45149203465590662965483510125071
96,1.45360203789567005977795630935242
97,1.45569014300731137421791853103456
98,1.45775680006814945084343762233719
99,1.45980244541582504120409907453791
100,1.46182750220208963268899520013789
101,1.46383238091896500652416563346469
102,1.46581747989890966217836543114306
103,1.46778318579052036513379677976870
104,1.46972987401118981026803949185840
105,1.47165790917804831933649871587762
106,1.47356764551842672680098287467892
107,1.47545942726099952629462895498690
108,1.47733358900868811045897303905483
109,1.47919045609433534335483764687237
110,1.48103034492010028452361740381909
111,1.48285356328145602257704151060653
112,1.48466041067662414256000872174893
113,1.48645117860222381553701971076194
114,1.48822615083586474109638880977376
115,1.48998560370637272496383659429666
116,1.49172980635228834226887716455985
117,1.49345902096924742400059384301812
118,1.49517350304681107308388606453551
119,1.49687350159527920279092506476745
120,1.49855925936299574796760774789814
121,1.50023101304461543231055321192580
122,1.50188899348078306179740784844025
123,1.50353342584964412144121653322424
124,1.50516452985058777273096761774154
125,1.50678251988059378285731951235879
126,1.50838760520353971952492694676127
127,1.50997999011280416726642203565685
128,1.51155987408747913398320675093659
129,1.51312745194249274320008809428824
130,1.51468291397292492565354922833935
131,1.51622644609278341971535685146876
132,1.51775822996849241295241348418837
133,1.51927844314733437553979876240796
134,1.52078725918107436028511313932281
135,1.52228484774497793567971349613668
136,1.52377137475243023086209083966381
137,1.52524700246535026343506106975782
138,1.52671188960058110908780669024455
139,1.52816619143243436606823355743508
140,1.52961005989155192158280798383928
141,1.53104364366024346971110585067769
142,1.53246708826445015715518886651475
143,1.53388053616247608297471224520613
144,1.53528412683062219882154386787337
145,1.53667799684585296842876973658335
146,1.53806227996561827635783605825245
147,1.53943710720494487304177305027663
148,1.54080260691091268512890012318709
149,1.54215890483461779205730746324446
150,1.54350612420072570971315693456642
151,1.54484438577471089540197987857128
152,1.54617380792787277327768355612125
153,1.54749450670021722989714217721330
154,1.54880659586128747911634302368388
155,1.55011018696902253229423963208464
156,1.55140538942672114014045453807370
157,1.55269231053818225278286179153811
158,1.55397105556109381612867144622519
159,1.5552417277587335773245908204977
160,1.5565044284500482368259509428177
161,1.5577592570581694431659271152830
162,1.5590063111574260914964062846604
163,1.5602456865189077791699140680299
164,1.5614774771546340549278261191881
165,1.5627017753603780618825754376554
166,1.5639186717571950898527434848685
167,1.5651282553317032693406467630399
168,1.5663306134751590960360249572344
169,1.5675258320213728479065377790867
170,1.5687139952835036379608993276742
171,1.5698951860897742971155207820459
172,1.5710694858181439537926531044395
173,1.5722369744299737125508660429045
174,1.5733977305027212752319085457159
175,1.5745518312616984895269825096259
176,1.5756993526109215312852702392552
177,1.5768403691630869810721796501025
178,1.5779749542687029493434689061236
179,1.5791031800444016951510033221716
180,1.5802251174004646847490148583419
181,1.5813408360675827386568577824944
182,1.5824504046228789625335218159685
183,1.5835538905152175111076458915820
184,1.5846513600898224266688082856104
185,1.5857428786122283602130976033703
186,1.5868285102915841438319351416820
187,1.5879083183033330148109608991914
188,1.5889823648112849277228519325661
189,1.5900507109891046855709334025489
190,1.5911134170412315410274188867534
191,1.5921705422232494902838309974921
192,1.5932221448617246416816236484312
193,1.5942682823735279629354516363145
194,1.5953090112846567476954953371320
195,1.5963443872485727337708366384007
196,1.5973744650640705648765520614240
197,1.5983992986926909711876364384043
198,1.5994189412756928306408624983800
199,1.6004334451505969448000263139501
200,1.6014428618673154694454161788515
201,1.6024472422038779762662574945881
202,1.6034466361817675217673906947938
203,1.6044410930808773780720725584153
204,1.6054306614541000404824090928726
205,1.6064153891415584771092387595583
206,1.6073953232844926392683934981241
207,1.6083705103388071032686843715119
208,1.6093409960882940649961606553153
209,1.6103068256575374301221187585390
210,1.6112680435245094955338257500603
211,1.6122246935328675809442405445197
212,1.6131768189039608378027149961336
213,1.6141244622485516133945542676882
214,1.6150676655782663458128156066544
215,1.6160064703167751960269265808818
216,1.6169409173107143714985444316146
217,1.6178710468403551003799141401796
218,1.6187968986300282287375176489016
219,1.6197185118583077137297874876239
220,1.6206359251679655208593119228229
221,1.6215491766756958275819388637209
222,1.6224583039816257306308016558413
223,1.6233633441786060178787157588329
224,1.6242643338612970640294929930682
225,1.6251613091350524066727821215558
226,1.6260543056246035406354024880761
227,1.6269433584825545734675702684517
228,1.6278285023976885522552881517728
229,1.6287097716030926138941304982942
230,1.6295871998841066450525912218807
231,1.6304608205860972410793182025927
232,1.6313306666220673727586929753759
233,1.6321967704800967464027480307061
234,1.6330591642306290033287768686506
235,1.6339178795335989298057908171109
236,1.6347729476454093762213443636439
237,1.6356243994257615055783812018389
238,1.6364722653443401023157150235716
239,1.6373165754873593770141533784219
240,1.6381573595639714203868039386253
241,1.6389946469125415878831688830457
242,1.6398284665067936708379259847770
243,1.6406588469618288849175801103247
244,1.6414858165400203640810526001970
245,1.6423094031567875331444376367159
246,1.6431296343862528774967781506090
247,1.6439465374667824917312943942859
248,1.6447601393064179877251222999449
249,1.6455704664881947306616736636491
250,1.6463775452753567870947728617248
251,1.6471814016164664844600818081768
252,1.6479820611504113799270275350329
253,1.6487795492113137101878089714073
254,1.6495738908333419784338844918406
255,1.6503651107554285579426140163606
256,1.6511532334258933970341858727629
257,1.6519382830069802161364114021295
258,1.6527202833793016410093397224744
259,1.6534992581462000749734522893853
260,1.6542752306380246958389803431260
261,1.6550482239163248905866254252181
262,1.6558182607779648525249676105525
263,1.6565853637591581908043146704077
264,1.6573495551394280024380817991162
265,1.6581108569454909313570447310594
266,1.6588692909550673815267213382192
267,1.6596248787006210966574908766646
268,1.6603776414730281395043665618139
269,1.6611276003251795399530849752724
270,1.6618747760755133353143363745198
271,1.6626191893114852860599931193403
272,1.6633608603929722458429188893945
273,1.6640998094556156281919031278636
274,1.6648360564141021781763805508360
275,1.6655696209653859238973348432439
276,1.6663005225918495854336668977014
277,1.6670287805644129245346691374494
278,1.6677544139455797889828706397936
279,1.6684774415924353540725137469460
280,1.6691978821595856540498244767248
281,1.6699157541020472923187734600860
282,1.6706310756780848266609545146957
283,1.6713438649519990418964418525996
284,1.6720541397968632665011374679239
285,1.6727619178972145404216578328532
286,1.6734672167516956588133264862498
287,1.6741700536756531509727705268355
288,1.6748704458036875962214515564808
289,1.6755684100921609247846248672160
290,1.6762639633216614361733255306041
291,1.6769571220994243759899979264871
292,1.6776479028617109560443022751505
293,1.6783363218761497235343392355791
294,1.6790223952440353161877036949612
295,1.6797061389025866904876768288448
296,1.6803875686271724085246229497904
297,1.6810667000334929151775230838203
298,1.6817435485797291223570860951646
299,1.6824181295686541031459384133099
300,1.6830904581497096464189085877036
301,1.6837605493210480833587598353406
302,1.6844284179315414787776932004479
303,1.6850940786827553603506362800227
304,1.6857575461308905632670938932692
305,1.6864188346886946188054159384488
306,1.6870779586273419500264530188633
307,1.6877349320782800565374267922302
308,1.6883897690350491667515593209137
309,1.6890424833550714469062493004474
310,1.6896930887614101019835433260189
311,1.6903415988445019634326579337808
312,1.6909880270638610768245200755846
313,1.6916323867497546821841992416589
314,1.6922746911048533912720418368695
315,1.6929149532058548814539438056582
316,1.6935531860050824817997508873847
317,1.6941894023320561900122257225071
318,1.6948236148950414714285653603455
319,1.6954558362825729816539401466771
320,1.6960860789649532140823292519468
321,1.6967143552957299912364973679589
322,1.6973406775131489143549236166385
323,1.6979650577415842852624226472181
324,1.6985875079929474776611765987988
325,1.6992080401680745198202710699433
326,1.6998266660580911258876927340898
327,1.7004433973457579965772759450190
328,1.7010582456067935784226377713248
329,1.7016712223111792564534649514984
330,1.7022823388244434119577602741921
331,1.7028916064089257839029736395874
332,1.7034990362250231952372772717536
333,1.7041046393324170226056465061656
334,1.7047084266912805934832889906993
335,1.7053104091634708256382585419527
336,1.7059105975137001669535627421915
337,1.7065090024106917078343786574169
338,1.7071056344283185250307580161283
339,1.7077005040467233213623014874371
340,1.7082936216534244526636750894936
341,1.7088849975444040555077304055567
342,1.7094746419251807728343922611506
343,1.7100625649118667152534168193518
344,1.7106487765322086517071218030755
345,1.7112332867266152488056823908471
346,1.7118161053491678336091638762051
347,1.7123972421686182451934959555988
348,1.7129767068693705867031017915237
349,1.7135545090524504227939398423246
350,1.7141306582364589647860409046822
351,1.7147051638585143311084199444247
352,1.7152780352751795653806852561978
353,1.7158492817633766964887335017976
354,1.7164189125212882551102088066053
355,1.7169869366692466119531440901639
356,1.7175533632506093474764489100715
357,1.7181182012326238921163894851797
358,1.7186814595072806810068648517140
359,1.7192431468921505683185321557129
360,1.7198032721312154391226622466047
361,1.7203618438956837636359553919214
362,1.7209188707847975754334793062588
363,1.7214743613266254692302850331152
364,1.7220283239788466422137704989404
365,1.7225807671295242152818815393527
366,1.7231316990978667118450035447803
367,1.7236811281349805861911502648387
368,1.7242290624246105901319223087781
369,1.7247755100838726104643041975168
370,1.7253204791639746904130725692621
371,1.7258639776509290883527270097688
372,1.7264060134662543302782392274454
373,1.7269465944676672227304368751361
374,1.7274857284497691346459729494430
375,1.7280234231447172396917645827173
376,1.7285596862228921752907629347102
377,1.7290945252935539075394725260276
378,1.7296279479054889694199572799046
379,1.7301599615476509120982400553124
380,1.7306905736497907260648955639286
381,1.7312197915830801075438908374457
382,1.7317476226607246883305244330728
383,1.7322740741385719037102630837324
384,1.7327991532157084621497654237294
385,1.7333228670350510380049570210011
386,1.7338452226839308458884950756624
387,1.7343662271946678460223585944279
388,1.7348858875451385173624221417257
389,1.7354042106593378731683346062745
390,1.7359212034079329081124916880652
391,1.7364368726088077938547267885445
392,1.7369512250276044314459099953394
393,1.7374642673782558340325946062186
394,1.7379760063235109209444828602143
395,1.7384864484754535800221701416827
396,1.7389956003960156490374012457613
397,1.7395034685974834460975637569118
398,1.7400100595429978571531603843338
399,1.7405153796470465463829907886029
400,1.7410194352759525893983644123295
401,1.7415222327483555781693902103085
402,1.7420237783356859428729105489085
403,1.7425240782626353113854346356574
404,1.7430231387076207994934986791880
405,1.7435209658032406972498517897246
406,1.7440175656367276604926098175900
407,1.7445129442503965242306171327762
408,1.7450071076420842410714769417439
409,1.7455000617655848057518553326363
410,1.7459918125310816802312148332488
411,1.7464823658055719793493364804895
412,1.7469717274132859996193422448824
413,1.7474599031361031701983997305018
414,1.7479468987139608498638066584403
415,1.7484327198452602539395114134551
416,1.7489173721872659407884507019166
417,1.7494008613565017063396676937416
418,1.7498831929291400498690286800547
419,1.7503643724413894895275172715114
420,1.7508444053898747095211419114286
421,1.7513232972320134911084298851021
422,1.7518010533863897090004774714365
423,1.7522776792331202292851693670560
424,1.7527531801142193225826949773420
425,1.7532275613339569717734588720698
426,1.7537008281592146811203637327954
427,1.7541729858198362713962770269925
428,1.7546440395089736746850043527804
429,1.7551139943834316412242860472976
430,1.7555828555640042203763119154368
431,1.7560506281358105193600633832314
432,1.7565173171486268892390679305410
433,1.7569829276172108760405112264476
434,1.7574474645216280349216343965200
435,1.7579109328075694310358912487685
436,1.7583733373866677280669700843920
437,1.7588346831368100257777213740018
438,1.7592949749024464286150787472664
439,1.7597542174948950266522551917805
440,1.7602124156926443600573133592453
441,1.7606695742416505269171222707965
442,1.7611256978556324980378919653369
443,1.7615807912163652863926709584488
444,1.7620348589739655905610872006490
445,1.7624879057471792427941415685133
446,1.7629399361236614860263607646014
447,1.7633909546602572489773351274791
448,1.7638409658832746375161801300250
449,1.7642899742887594827661137851497
450,1.7647379843427630983615943886672
451,1.7651850004816107499234610913204
452,1.7656310271121636780714242083889
453,1.7660760686120804180155331108586
454,1.7665201293300738046457900399372
455,1.7669632135861672869613073959462
456,1.7674053256719458488075457797301
457,1.7678464698508062315965852192117
458,1.7682866503582028548757669507035
459,1.7687258714018919486367601486491
460,1.7691641371621735396757445115550
461,1.7696014517921291416961509449283
462,1.7700378194178583621710570825510
463,1.7704732441387130297023694229504
464,1.7709077300275270027484618375959
465,1.7713412811308456284211155118231
466,1.7717739014691519820133674137289
467,1.7722055950370891677397119896632
468,1.7726363658036836962929264629494
469,1.7730662177125624158789479645062
470,1.7734951546821705212331672386982
471,1.7739231806059849076884771500833
472,1.7743502993527271678693372561376
473,1.7747765147665715818759062853716
474,1.7752018306673556049142516018425
475,1.7756262508507817750879233527953
476,1.7760497790886235551175829127303
477,1.7764724191289254409442826944467
478,1.7768941746962020131650146838976
479,1.7773150494916348206424141988972
480,1.7777350471932674908285105812246
481,1.7781541714561976176339135990050
482,1.7785724259127689955860442457524
483,1.7789898141727595802293989264717
484,1.7794063398235679944767491391406
485,1.7798220064304000577421007743087
486,1.7802368175364499226008911987606
487,1.7806507766630826677124458702449
488,1.7810638873100129434416383364995
489,1.7814761529554828982304442633051
490,1.7818875770564372487122868773549
491,1.7822981630486976277185104392848
492,1.7827079143471347982271886651493
493,1.7831168343458387081247567103075
494,1.7835249264182874796793454512584
495,1.7839321939175135260782241101325
496,1.7843386401762700393049757831877
497,1.7847442685071935347289512999107
498,1.7851490822029663975098332933142
499,1.7855530845364769279850767003348
500,1.785956278760979016356552905237
501,1.786358668110247192528877504427
502,1.786760255798734506090407702441
503,1.787161045021724704369744809488
504,1.787561038955486552208425704938
505,1.787960240757423140713780940481
506,1.788358653566221914874915718854
507,1.788756280502003267859895347863
508,1.789153124666467341740542410108
509,1.789549189143037265318033471373
510,1.789944476997004882066613528328
511,1.790338991275672199047952122768
512,1.790732735008492456767538334864
513,1.791125711207209435484574293493
514,1.791517922865995674211257773281
515,1.791909372961589976474106362222
516,1.792300064453432412999272377144
517,1.792690000283797895886689088740
518,1.793079183377930109484768289625
519,1.793467616644172579735633860483
520,1.793855302974099738820756447202
521,1.794242245242644780162064791651
522,1.794628446308228579806773348445
523,1.795013909012886121179412694509
