Eigenstate,Potential Energy
1,0.500000000041827953307662933624524537
2,0.64623093792414571652721175141214715
3,0.73633761050698236428930821320880403
4,0.79966527948472714519204758211107807
5,0.8480465781793133362098267914308603
6,0.8870660013478881506483652249342483
7,0.9197208304297865567225738799839990
8,0.9477838518025741296060178012919339
9,0.9723835644728964777756710021316480
10,0.9942802225895626028250463443887995
11,1.0140093962937778271886776668708503
12,1.0319621808902977520626281485088428
13,1.0484327064450322103056048754064934
14,1.0636476706412137895737230950252739
15,1.0777854545935869368501909193969993
16,1.090988927718855741124496239703604
17,1.103374281197190135912019499709295
18,1.115037278978426701824724497044346
19,1.126057780886047274474456531370944
20,1.136503080251116131204564081106196
21,1.146430409993977735091950582110128
22,1.155888853782997302699902733726829
23,1.164920823971085796678822895190640
24,1.173563218996122349857959906154778
25,1.181848340176880867358031792498810
26,1.189804625520617946461415366746546
27,1.197457242685648849798664904739075
28,1.204828572340387456230961580186791
29,1.211938605365298290868626277404726
30,1.218805271694721165352721209617957
31,1.225444714449590458721650199065463
32,1.231871519934171483937131794477291
33,1.238098911760288580638482402370065
34,1.244138915611973308270512612091076
35,1.250002499824266047843073428088889
36,1.255699695916425441900634702774961
37,1.261239702415715553673637256142583
38,1.266630974677521883179203139346079
39,1.271881302909698728476163057230043
40,1.276997880213229596702118176391299
41,1.281987362134532095776013752390955
42,1.286855918969746136127572824328714
43,1.291609281854857926886498631292066
44,1.296252783507418235451588455147921
45,1.300791394348043810356888277413508
46,1.305229754616754584754473338613543
47,1.309572203005722665499187901803478
48,1.313822802252422748570839621812072
49,1.317985362072511057671613406240680
50,1.32206345975763718918249101956829
51,1.32606045871792628418950583182816
52,1.32997952521052373399088710228138
53,1.33382364346314450694995681276231
54,1.33759562937400805310239079715776
55,1.34129814294606425041451022675302
56,1.34493369959334128646409468150235
57,1.34850468044004740419613498600671
58,1.35201334171826125411515865074040
59,1.35546182335729164800043958251031
60,1.35885215684676300152834625185283
61,1.36218627244591852568142683004201
62,1.36546600580333222171052166151783
63,1.36869310404397884539552560187254
64,1.37186923137429852642844168839819
65,1.37499597425035788876960025184297
66,1.37807484614936217877377467888725
67,1.38110729198051061655717549687365
68,1.38409469216743102526773452495361
69,1.38703836643111712219435975576130
70,1.38993957729936358738665164057697
71,1.39279953336609532172568675324416
72,1.39561939232168906400630960092339
73,1.39840026377333253018817093317416
74,1.40114321187264738941970589237331
75,1.40384925776617129033636429919637
76,1.40651938188284459437899950439941
77,1.40915452607134507446027741461543
78,1.41175559559894803912666910560788
79,1.41432346102254252237134731467984
80,1.41685895994149605360871886016641
81,1.41936289864121118084483361067704
82,1.42183605363545546952422551292621
83,1.42427917311485796574404854276843
84,1.42669297830834082081028969619344
85,1.42907816476369549793701623548268
86,1.43143540355299711650028201092671
87,1.43376534240809301845849782680742
88,1.43606860679097826381522434831278
89,1.43834580090348725983887829888060
90,1.44059750864038751202452198486066
91,1.44282429448964003273224668246836
92,1.44502670438330264589739582344640
93,1.44720526650229017115234269736219
94,1.44936049203796254196134601033529
95,1.45149287591329075834103119676181
96,1.45360289746614875262249819697304
97,1.45569102109709490460167477318152
98,1.45775769688383406812947356776621
99,1.45980336116439749900456591807023
100,1.46182843709093173361515484174004
101,1.46383333515585816362192779776498
102,1.46581845369203947725313496060889
103,1.46778417934848122416981287843685
104,1.46973088754298949614905576339718
105,1.47165894289311264207589705799029
106,1.47356869962660417149104937570827
107,1.47546050197256591898612265100188
108,1.47733468453435130218360098493742
109,1.47919157264523991250481575672325
110,1.48103148270783225780389289538978
111,1.48285472251804761474733943690642
112,1.48466159157455851518537953392668
113,1.48645238137443985496703205485697
114,1.48822737569576185589472554136140
115,1.48998685086781566301158862016845
116,1.49173107602961202776637351707291
117,1.49346031337726181459421920980865
118,1.49517481840080603734586058005811
119,1.49687484011102941828171396675500
120,1.49856062125676562011226692228781
121,1.50023239853316403432185167849929
122,1.50189040278136909588028336788400
123,1.50353485918003090151484463496353
124,1.50516598742904822890628283606908
125,1.50678400192591548790964273294414
126,1.50838911193502993760307206824530
127,1.50998152175029492508131872219305
128,1.51156143085133231472092358827465
129,1.51312903405360520340588951219309
130,1.51468452165273363533536860150970
131,1.51622807956327062591691363200074
132,1.51775988945219082704819211396884
133,1.51928012886733238450564047006147
134,1.52078897136102126220033260045810
135,1.52228658660908919971851498763575
136,1.52377314052549278203379194025525
137,1.52524879537272779233481398083956
138,1.52671370986821940692130906421970
139,1.52816803928686668521598921207023
140,1.52961193555990436197148782708608
141,1.53104554737024039126153298314687
142,1.53246902024441961857866637795314
143,1.53388249664135530719129145322888
144,1.53528611603796306527621525490428
145,1.53668001501182753258334519064637
146,1.53806432732102431663874881092019
147,1.53943918398121146552598606123532
148,1.54080471334010580625245416189974
149,1.54216104114944594963321620149307
150,1.54350829063454560254747007466821
151,1.54484658256153310179949535895313
152,1.54617603530236746873066351630510
153,1.54749676489771993425298098626766
154,1.54880888511780483352236694789987
155,1.55011250752123810622029537692653
156,1.55140774151200126878239556630857
157,1.55269469439458190515231970394236
158,1.55397347142736249413705499760801
159,1.5552441758743212461718397749849
160,1.5565069090551112870069604331106
161,1.5577617703935766844102676057573
162,1.5590088574647647789593822698137
163,1.5602482660404896721957186389154
164,1.5614800901335015087082103603996
165,1.5627044220403101523371891715632
166,1.5639213523827137720597893189258
167,1.5651309701480795698494520711590
168,1.5663333627284193393958926979556
169,1.5675286159583049177488243158247
170,1.5687168141516632729745131612665
171,1.5698980401374914222584433220917
172,1.5710723752945290470853647474083
173,1.5722398995849242078002728623757
174,1.5734006915869280010374309587082
175,1.5745548285266521449235065486418
176,1.5757023863089191983806119849302
177,1.5768434395472386750398561453268
178,1.5779780615929382061347332590750
179,1.5791063245634761972930714388774
180,1.5802282993699669255998554304901
181,1.5813440557439407254899225486752
182,1.5824536622633669588292022925740
183,1.5835571863779628184314251056812
184,1.5846546944338122065195086604970
185,1.5857462516973164962281052271579
186,1.5868319223784981447392918134683
187,1.5879117696536809585222509479480
188,1.5889858556875624469637775585647
189,1.5900542416547019954504215319831
190,1.5911169877604405089493923553919
191,1.5921741532612707486096030011979
192,1.5932257964846747435544230977131
193,1.5942719748484465816823164050982
194,1.5953127448795139202255992265810
195,1.5963481622322761483929643447865
196,1.5973782817064728939624094193815
197,1.5984031572645972491115710149432
198,1.5994228420488678774303298239605
199,1.6004373883977728359354146430236
200,1.6014468478621990522515367525119
201,1.6024512712211584333420618083878
202,1.6034507084971239819046862903666
203,1.6044452089709865751179106710008
204,1.6054348211966440206043176269207
205,1.6064195930152323549264603843395
206,1.6073995715690124033168937399210
207,1.6083748033149174712717981293990
208,1.6093453340377763894174322508826
209,1.6103112088632176544810774923578
210,1.6112724722702661619701969983327
211,1.6122291681036398895205357372901
212,1.6131813395857567580398160893677
213,1.6141290293284560485396403600755
214,1.6150722793444493503436303291080
215,1.6160111310585002469012135024412
216,1.6169456253183466936624780962426
217,1.6178758024053700470539838814507
218,1.6188017020450197170035219797522
219,1.6197233634169967159475577392577
220,1.6206408251652086124468546998241
221,1.6215541254074937916978749609656
222,1.6224633017451322203031190608938
223,1.6233683912721362761292618848526
224,1.6242694305843367025487501215284
225,1.6251664557882662436051634140893
226,1.6260595025098444980405472793468
227,1.6269486059028726350285900985674
228,1.6278338006573397818109100622291
229,1.6287151210075482353767659769376
230,1.6295926007400621844206203196533
231,1.6304662732014817308373329858669
232,1.6313361713060526196654950093429
233,1.6322023275431066629727293524971
234,1.6330647739843490037384388181106
235,1.6339235422909853908230769285510
236,1.6347786637206991637817673368249
237,1.6356301691344815676381847813289
238,1.6364780890033171286184349397946
239,1.6373224534147295264132911127849
240,1.6381632920791901163742759959536
241,1.6390006343363933829791426542725
242,1.6398345091614021805043933219529
243,1.6406649451706667916652430535497
244,1.6414919706279194924449203290285
245,1.6423156134499489962113851845586
246,1.6431359012122572956746667616122
247,1.6439528611546002844563896706193
248,1.6447665201864197388116735238255
249,1.6455769048921616280047975404489
250,1.6463840415364911374451480817904
251,1.6471879560694023039960443033329
252,1.6479886741312250613573723340349
253,1.6487862210575347671260147923567
254,1.6495806218839638677923281478289
255,1.6503719013509195811028713924394
256,1.6511600839082076805576108872055
257,1.6519451937195687727868372932694
258,1.6527272546671235118679342950595
259,1.6535062903557335534338969477702
260,1.6542823241172786342793398613789
261,1.6550553790148500905226772634887
262,1.6558254778468655390582252072300
263,1.6565926431511035721863212009495
264,1.6573568972086639155814925871884
265,1.6581182620478515741325556325454
266,1.6588767594479871326938025179904
267,1.6596324109431464242859483868641
268,1.6603852378258295987529886353876
269,1.6611352611505638610803138195689
270,1.6618825017374356028058634314208
271,1.6626269801755612097671520891342
272,1.6633687168264905250356272169112
273,1.6641077318275504094392525170039
274,1.6648440450951256079781021719151
275,1.6655776763278807969989795590245
276,1.6663086450099220897687083150619
277,1.6670369704139054837465613256285
278,1.6677626716040840034908187496793
279,1.6684857674393050416546073350366
280,1.6692062765759499909283101443015
281,1.6699242174708240557425328458684
282,1.6706396083839937399911933287914
283,1.6713524673815752232127680224354
284,1.6720628123384707817558655417773
285,1.6727706609410600621821294265827
286,1.6734760306898422316425564140183
287,1.6741789389020340645110684515167
288,1.6748794027141203670429100616576
289,1.6755774390843613881142937895365
290,1.6762730647952579485628754131747
291,1.6769662964559721300619327430745
292,1.6776571505047064084270428845417
293,1.6783456432110451371226924919087
294,1.6790317906782534178763673364772
295,1.6797156088455354455377238605980
296,1.6803971134902599127361045081340
297,1.6810763202301424060544782523089
298,1.6817532445253941104643523600189
299,1.6824279016808336248707980514538
300,1.6831003068479636393640943113693
301,1.6837704750270128856074029034271
302,1.6844384210689454532843986505876
303,1.6851041596774346457273444045304
304,1.6857677054108049522466580892243
305,1.6864290726839435656806727581969
306,1.6870882757701807083764624340068
307,1.6877453288031359485684906819171
308,1.6884002457785379855951674922387
309,1.6890530405560139932316841163100
310,1.6897037268608488562980931289256
311,1.6903523182857178954585308105982
312,1.6909988282923905933574267160343
313,1.6916432702134067148542524134872
314,1.6922856572537266256446389972455
315,1.6929260024923551289246346535538
316,1.6935643188839401957537221356099
317,1.6942006192603441277362797836794
318,1.6948349163321925032808128237852
319,1.6954672226903980490136748543343
320,1.6960975508076594376204137661007
321,1.6967259130399389310645687157795
322,1.6973523216279149836300181027477
323,1.6979767886984133188417606584737
324,1.6985993262658154574210907957275
325,1.6992199462334464582715112214364
326,1.6998386603949401097393334997034
327,1.7004554804355843919201833186687
328,1.7010704179336443992238440619339
329,1.7016834843616676980724270563025
330,1.7022946910877685514156282919823
331,1.7029040493768924486568970222965
332,1.7035115703920620022326635747291
333,1.7041172651956045893999243245276
334,1.7047211447503599232567018217535
335,1.7053232199208718679282555044163
336,1.7059235014745605559722324452555
337,1.7065220000828776802499009869054
338,1.7071187263224460191169903681134
339,1.7077136906761792594430180617793
340,1.7083069035343882088016542092108
341,1.7088983751958691104122825012906
342,1.7094881158689765579851468719192
343,1.7100761356726806482615175561422
344,1.7106624446376083649606894684644
345,1.7112470527070710134703468849569
346,1.7118299697380751810805230849742
347,1.7124112055023207881230419414804
348,1.7129907696871830417463527389823
349,1.7135686718966818372542123489366
350,1.7141449216524361493558027845152
351,1.7147195283946055009359406502893
352,1.7152925014828181917175104793586
353,1.7158638501970855712014356038439
354,1.7164335837387037703684536403598
355,1.7170017112311432574339390619943
356,1.7175682417209244274540702750435
357,1.7181331841784824648370016534033
358,1.7186965474990207227761949166652
359,1.7192583405033483647617946133885
360,1.7198185719387112061066738979349
361,1.7203772504796075003739712426574
362,1.7209343847285951523255809220755
363,1.7214899832170849530240439462005
364,1.7220440544061248611018556635569
365,1.7225966066871735665875028517241
366,1.7231476483828622149784901253595
367,1.7236971877477471835951414523005
368,1.7242452329690506989678432340794
369,1.7247917921673939278267965517827
370,1.7253368733975182548951492212785
371,1.7258804846489976008199392397474
372,1.7264226338469407367474634069206
373,1.7269633288526835622851216837621
374,1.7275025774644756553573515511962
375,1.7280403874181517855547215500268
376,1.7285767663877998472196027938597
377,1.7291117219864170015111383027041
378,1.7296452617665571948891001108130
379,1.7301773932209718938510039893726
380,1.7307081237832407927184784237802
381,1.7312374608283953699408482094630
382,1.7317654116735324111188664196171
383,1.7322919835784221734434868661066
384,1.7328171837461061552844938380968
385,1.7333410193234880922180321875927
386,1.7338634974019188381801440591308
387,1.7343846250177708811175400615934
388,1.7349044091530064299689511801253
389,1.7354228567357397476970077297986
390,1.7359399746407909195123561706542
391,1.7364557696902313732644224600956
392,1.7369702486539247604118234964996
393,1.7374834182500606710936709917251
394,1.7379952851456797644348465760368
395,1.7385058559571931709930824947525
396,1.7390151372508958182531289578381
397,1.7395231355434733091122701125345
398,1.7400298573025023615294855114081
399,1.7405353089469433751678125735471
400,1.7410394968476294250265725512031
401,1.7415424273277477310223384970951
402,1.7420441066633143487763549753527
403,1.7425445410836449023885880567542
404,1.7430437367718192523300857374006
405,1.7435416998651375639421561882932
406,1.7440384364555738856205061844700
407,1.7445339525902243534478163719490
408,1.7450282542717475255157703714704
409,1.7455213474587997070581017055205
410,1.7460132380664677809217588250613
411,1.7465039319666938034412142145798
412,1.7469934349886949483543733385339
413,1.7474817529193798778707900648205
414,1.7479688915037579647876921451795
415,1.7484548564453456496692697193539
416,1.7489396534065663627753917223979
417,1.7494232880091468592808909069901
418,1.7499057658345071310771965520601
419,1.7503870924241481737253117879450
420,1.7508672732800325905393244657960
421,1.7513463138649619860427860769975
422,1.7518242196029504304618005486115
423,1.7523009958795918314559691921214
424,1.7527766480424248268729430220286
425,1.7532511814012915779520542882595
426,1.7537246012286940698805093667371
427,1.7541969127601454043975941702876
428,1.7546681211945160982023990834784
429,1.7551382316943792996192209043064
430,1.7556072493863477856963228303412
431,1.7560751793614102434608049005030
432,1.7565420266752639849161106583654
433,1.7570077963486394337516979758978
434,1.7574724933676274817735057061085
435,1.7579361226839975388061645768004
436,1.7583986892155141771307727395610
437,1.7588601978462505319063422852302
438,1.7593206534268974397165829082623
439,1.7597800607750689966253828149040
440,1.7602384246756056070349882407457
441,1.7606957498808716832824257057685
442,1.7611520411110515597033575767765
443,1.7616073030544432689422196783567
444,1.7620615403677447999673235918637
445,1.7625147576763421685357704246060
446,1.7629669595745903245471367754991
447,1.7634181506260940655431567698087
448,1.7638683353639821746497808624816
449,1.7643175182911826235562071635764
450,1.7647657038806909930691153365012
451,1.7652128965758396144325942068025
452,1.7656591007905602728601002634382
453,1.7661043209096462164511282726187
454,1.7665485612890098595422203181894
455,1.7669918262559398044688805889998
456,1.7674341201093524788434556246039
457,1.7678754471200430841631387540147
458,1.7683158115309322517535740942236
459,1.7687552175573109200855159921542
460,1.7691936693870830759197929660937
461,1.7696311711810042091230886643768
462,1.7700677270729186943203365042865
463,1.7705033411699947032770192335701
464,1.7709380175529548090384336157426
465,1.7713717602763062506871931283192
466,1.7718045733685679895426701843575
467,1.7722364608324938374475018010548
468,1.7726674266452966729159086687180
469,1.7730974747588662219747106583050
470,1.7735266090999879283738783921806
471,1.7739548335705571804164009084984
472,1.7743821520477931921590328258136
473,1.7748085683844478900338448116392
474,1.7752340864090173090323831647844
475,1.7756587099259444213570988166982
476,1.7760824427158259115019792016386
477,1.7765052885356132309132765737836
478,1.7769272511188126083812907541715
479,1.7773483341756829057067138035811
480,1.7777685413934317133915979762798
481,1.7781878764364082373972896771339
482,1.7786063429462965459276901952855
483,1.7790239445423045564115257741909
484,1.7794406848213515826144212431740
485,1.7798565673582559189409226659787
486,1.7802715957059170469014813642269
487,1.7806857733954993127173874008961
488,1.7810991039366116727396162219623
489,1.7815115908174867349776076434824
490,1.7819232375051569599798946206284
491,1.7823340474456301554699171949089
492,1.7827440240640628530456738888258
493,1.7831531707649315420775755090457
494,1.7835614909322028549711816690847
495,1.7839689879295008964210141026994
496,1.7843756651002749612099241799479
497,1.7847815257679633262090006578164
498,1.7851865732361570619720224705139
499,1.7855908107887613613852354162372
500,1.785994241690156515988956178940
501,1.786396869185354286131444631978
502,1.786798696500157120254290981362
503,1.787199726841311691563389301582
504,1.787599963396664596047330674911
505,1.787999409335313059438847964292
506,1.788398067807756383337507559692
507,1.788795941946045978655064316393
508,1.789193034863933626479974759509
509,1.789589349657016197388708279980
510,1.789984889402882882585525460870
511,1.790379657161258168094137224470
512,1.790773655974144452348505050578
513,1.791166888865962923079692794856
514,1.791559358843693370127935490670
515,1.791951068897013308650942771144
516,1.792342021998434623299533570044
517,1.792732221103438808341928711061
518,1.793121669150612589371007277782
519,1.793510369061780708798716337743
520,1.793898323742138732408622500712
521,1.794285536080382672470792808366
522,1.794672008948839703907130502154
523,1.795057745203596410960305218356
