Eigenstate,Potential Energy
1,0.500000000039809256328176685121319311
2,0.64623093791096869179497571508538028
3,0.73633761046827581309300484509780670
4,0.79966527940410552108407954619340090
5,0.8480465780396595281450866294703051
6,0.8870660011317850614626870679172534
7,0.9197208301196760791997086311472203
8,0.9477838513808234086996101312425496
9,0.9723835639218286882743456759119506
10,0.9942802218914725387428378983961975
11,1.0140093954309403411682019224217525
12,1.0319621798449725512127647764347188
13,1.0484327051994666684279668815382822
14,1.0636476691776446177767971533379661
15,1.0777854528942411654085954516179071
16,1.090988925765951268653446427603004
17,1.103374278972935997041687225230998
18,1.115037276465023146048231381339907
19,1.126057778065685714875248673410846
20,1.136503077105979001344885729897962
21,1.146430406506238279675863441431627
22,1.155888849934819319545760664647200
23,1.164920819744623342254794693863921
24,1.173563214373519417103359761771011
25,1.181848335140271042104323682915005
26,1.189804620052124047092730181932193
27,1.197457236767382553608590801993814
28,1.204828565954448915083268895606941
29,1.211938598493775738151491446596540
30,1.218805264319690515760163443696478
31,1.225444706553114902055608463350334
32,1.231871511498301073866738366498636
33,1.238098902767059819157141803564693
34,1.244138906043408726440481835911944
35,1.250002489662373783299931098853143
36,1.255699685143198813498083429172172
37,1.261239691013132633576419412436434
38,1.266630962627545066654074594162516
39,1.271881290194274301584498640854620
40,1.276997866814287302060288149652734
41,1.281987348033984696519272746513635
42,1.286855904149488978188365353445133
43,1.291609266296768499677664888306663
44,1.296252767193355731028090624776036
45,1.300791377259848681115674093684452
46,1.305229736736248099720390361804712
47,1.309572184314706465235063926692130
48,1.313822782732678398741579465375974
49,1.317985341705799601285171125933217
50,1.32206343852569869752463530922361
51,1.32606043660247940646422066759412
52,1.32997950219326524567391289431706
53,1.33382361952574885685922697893033
54,1.33759560449812690918590124410914
55,1.34129811711332604425335377963378
56,1.34493367278535075648595387006026
57,1.34850465263838513759240946113452
58,1.35201331290448322745302260025572
59,1.35546179351292876651949661426225
60,1.35885212595332063711008102460830
61,1.36218624048487605347839000897622
62,1.36546597275614255542101538864031
63,1.36869306989206797116855110764939
64,1.37186919609906503538274235405052
65,1.37499593783317250810980468048026
66,1.37807480857156730148591596568054
67,1.38110725322341982966515381904815
68,1.38409465221232863663169558265409
69,1.38703832525925768583138868270261
70,1.38993953489197142729364957307608
71,1.39279948970436405418383092227955
72,1.39561934738678111834604863460704
73,1.39840021754637866799328682997881
74,1.40114316433474622214858024707974
75,1.40384920889838879533824878665056
76,1.40651933166621362928270202643051
77,1.40915447448686488991239347287699
78,1.41175554262758378985614920966051
79,1.41432340664522477655690134585632
80,1.41685890413912030052528731647044
81,1.41936284139463733676506252078141
82,1.42183599492550738185062796459725
83,1.42427911292232291534729570154143
84,1.42669291661396902254878383585173
85,1.42907810154819959933270304190020
86,1.43143533879705169454539588188369
87,1.43376527609233407452770273562848
88,1.43606853889600271665739179458317
89,1.43834573140985243662251433852048
90,1.44059743752861063741063069884007
91,1.44282422174019771594820425529683
92,1.44502662997663036578518105150517
93,1.44720519041878175916425905404314
94,1.44936041425796966307615150388596
95,1.45149279641712238987317372631930
96,1.45360281623407066089695003637025
97,1.45569093810932911946662445219359
98,1.45775761212055835527893086442581
99,1.45980327460574483008272430258923
100,1.46182834871698975407413092633506
101,1.46383324494666865830427817818473
102,1.46581836162759783367032523899716
103,1.46778408540873589344762840936347
104,1.46973079170784145161067251064989
105,1.47165884514241483543315047818839
106,1.47356859994016098661418665438313
107,1.47546040033013262322211847481390
108,1.47733458091563349519287525086707
109,1.47919146702989297258596313934141
110,1.48103137507546078567581560635416
111,1.48285461284820487475791802760195
112,1.48466147984674587391559882443606
113,1.48645226756810621719923427810198
114,1.48822725979030309791343176223085
115,1.48998673284257406320505468306042
116,1.49173095586387569449682034605067
117,1.49346019105026411130446782451321
118,1.49517469389172500486976580439875
119,1.49687471339898719432562507346570
120,1.49856049232082785587440928652933
121,1.50023226735233930821631224689092
122,1.50189026933460832433201415044679
123,1.50353472344622674679180197236326
124,1.50516584938703450395459490450766
125,1.50678386155446655815740640527104
126,1.50838896921286011969805341448874
127,1.50998137665605788252767076094158
128,1.51156128336362045037962942926729
129,1.51312888415094904882341122725909
130,1.51468436931360123686472194040291
131,1.51622792476606692759502147267328
132,1.51775973217525705019312356812920
133,1.51927996908894540399704144935507
134,1.52078880905939297940603329576289
135,1.52228642176236591203000285074313
136,1.52377297311175454897292378388963
137,1.52524862536998779819382666077553
138,1.52671353725442331989785494217324
139,1.52816786403989201300464759436082
140,1.52961175765755980377279937202517
141,1.53104536679026518616936892325505
142,1.53246883696448289030630597034968
143,1.53388231063905540509632569637082
144,1.53528592729082690164401640380644
145,1.53667982349730991612849393578269
146,1.53806413301650728218345498351673
147,1.53943898686400359981421079489666
148,1.54080451338744156985805383874882
149,1.54216083833848499492005101390229
150,1.54350808494237208763910478198232
151,1.54484637396515500051567757156126
152,1.54617582377871587644742781826968
153,1.54749655042364836964287365557895
154,1.54880866767008853613080907010657
155,1.55011228707657332983376954920718
156,1.55140751804700457054376791164550
157,1.55269446788578943037811062899274
158,1.55397324185122925679121573851314
159,1.5552439432072204049499870215962
160,1.5565066732733334169847766221202
161,1.5577615314733290442092299896707
162,1.5590086153821705733826620108670
163,1.5602480207715873102865462442806
164,1.5614798416542438571826415822480
165,1.5627041703265637843427229168194
166,1.5639210974102582112108766168715
167,1.5651307118926065294904347141847
168,1.5663331011655319570414666424687
169,1.5675283510635169846516956768834
170,1.5687165459003984587693469176767
171,1.5698977685050824946308080991968
172,1.5710721002562170864139142415872
173,1.5722396211158578167197411749959
174,1.5734004096621625088697996999464
175,1.5745545431211488069239167039030
176,1.5757020973975443897443199805204
177,1.5768431471047630796158109168860
178,1.5779777655940359997909533126458
179,1.5791060249827242258785342788305
180,1.5802279961818438774468610104809
181,1.5813437489228262984005452849513
182,1.5824533517835410214888053119106
183,1.5835568722136045661917168311144
184,1.5846543765589993114929598389656
185,1.5857459300860242516350693664079
186,1.5868315970045986034485676112388
187,1.5879114404909420657251786707375
188,1.5889855227096471669215270785949
189,1.5900539048351674322533113841621
190,1.5911166470727370212267065146415
191,1.5921738086787410581274950224510
192,1.5932254479805530376391532374655
193,1.5942716223958576094052819814663
194,1.5953123884514720822858853730987
195,1.5963478018016845806327978086784
196,1.5973779172461225444499203565561
197,1.5984027887471659487248289548170
198,1.5994224694469194038758307771765
199,1.6004370116837559711335207996149
200,1.6014464670084466330208375119109
201,1.6024508861998863953136411489116
202,1.6034503192804303965969189311957
203,1.6044448155308506801013783470159
204,1.6054344235049252426859353609426
205,1.6064191910436693262810371622293
206,1.6073991652892219704937578067145
207,1.6083743926983936970031990492377
208,1.6093449190558895471547139997543
209,1.6103107894872132155840168305637
210,1.6112720484712637754738540881916
211,1.6122287398526323544033848209887
212,1.6131809068536089879159916513296
213,1.6141285920859040286974250226155
214,1.6150718375620990870514230234214
215,1.6160106847068267089014564784107
216,1.6169451743676927457730386416750
217,1.6178753468259453757958160034705
218,1.6188012418068997481724421272930
219,1.6197228984901215240471713499481
220,1.6206403555193818218987104597245
221,1.6215536510123814697440940007048
222,1.6224628225702617615158382637604
223,1.6233679072868952784402551489746
224,1.6242689417579718347116613413262
225,1.6251659620898821040019644211358
226,1.6260590039084024647426734286759
227,1.6269481023671897070225342765234
228,1.6278332921560874112965847836283
229,1.6287146075092511510466975267298
230,1.6295920822130972056260911264484
231,1.6304657496140765725475800203828
232,1.6313356426262846881241804287350
233,1.6322017937389018419553495638017
234,1.6330642350234804313130854392883
235,1.6339229981410722265160197459337
236,1.6347781143492053460482335893926
237,1.6356296145087145615372390589574
238,1.6364775290904266635903847637370
239,1.6373218881817063240564401155449
240,1.6381627214928646081169107874179
241,1.6390000583634344175413505310258
242,1.6398339277683157210432379565516
243,1.6406643583237946024956091376351
244,1.6414913782934378152270756598960
245,1.6423150155938672154951915108767
246,1.6431352978004165936889873159244
247,1.6439522521526722850311994272471
248,1.6447659055599051403189841648292
249,1.6455762846063888252031343908330
250,1.6463834155566148321110487439529
251,1.6471873243604021042249145690185
252,1.6479880366579040694146500386696
253,1.6487855777845181557279281473129
254,1.6495799727756974446945449246838
255,1.6503712463716683418736572113426
256,1.6511594230220543494108994582850
257,1.6519445268904123313491231411654
258,1.6527265818586777157514810248687
259,1.6535056115315254364870590247402
260,1.6542816392406470003837687566234
261,1.6550546880489439928053078295557
262,1.6558247807546427463843150876832
263,1.6565919398953290227986762054430
264,1.6573561877519081577490880870800
265,1.6581175463524891936704959535005
266,1.6588760374761951672145487085918
267,1.6596316826569027640404549490225
268,1.6603845031869113739184810962277
269,1.6611345201205458153500250238299
270,1.6618817542776884531340790269980
271,1.6626262262472499921214131149464
272,1.6633679563905729260060502049577
273,1.6641069648447750835531466900697
274,1.6648432715260304805664003669347
275,1.6655768961327913524590739294908
276,1.6663078581489496450663355443476
277,1.6670361768469454469979721917405
278,1.6677618712908141174637661265554
279,1.6684849603391836120257020137065
280,1.6692054626482140991314642951026
281,1.6699233966744877562419454897891
282,1.6706387806778462418099133621159
283,1.6713516327241790555459732393644
284,1.6720619706881599434958995166331
285,1.6727698122559381551803750969966
286,1.6734751749277805775309116956067
287,1.6741780760206698049037468466620
288,1.6748785326708545469371905958615
289,1.6755765618363570223064925543646
290,1.6762721802994380708937239515971
291,1.6769654046690178253030205593663
292,1.6776562513830548266180452237632
293,1.6783447367108874901665452320122
294,1.6790308767555329581972723772253
295,1.6797146874559454266042815410518
296,1.6803961845892415312497940677561
297,1.6810753837728827256008443347993
298,1.6817523004668239664221847244450
299,1.6824269499756255103714807548829
300,1.6830993474505295720914284049361
301,1.6837695078915022552250526064073
302,1.6844374461492428492756680725630
303,1.6851031769271576654293561212075
304,1.6857667147833019888582422678897
305,1.6864280741322915760202247034099
306,1.6870872692471829601640648666756
307,1.6877443142613197470026438098639
308,1.6883992231701523789924452839337
309,1.6890520098330274574943167826250
310,1.6897026879749469579717123027908
311,1.6903512711883009331390636785778
312,1.6909977729345712172032128838170
313,1.6916422065460075239565883953275
314,1.6922845852272777430065514606455
315,1.6929249220570917537942043186326
316,1.6935632299898001330558546360709
317,1.6941995218569652943428419659820
318,1.6948338103689104108560466893848
319,1.6954661081162432631682417714417
320,1.6960964275713550131045777031413
321,1.6967247810898978227262879044050
322,1.6973511809122374328617687850241
323,1.6979756391648842152352187592699
324,1.6985981678619016753453769308264
325,1.6992187789062941680876723256141
326,1.6998374840913720633589828465864
327,1.7004542951020971824134260194585
328,1.7010692235164056941766790751385
329,1.7016822808065134463911338071165
330,1.7022934783402001632708774708084
331,1.7029028273820739482564263706034
332,1.7035103390948171531074643682534
333,1.7041160245404139918846035719426
334,1.7047198946813580838404918946010
335,1.7053219603818442401489655226339
336,1.7059222324089405525212031970054
337,1.7065207214337436559511277401224
338,1.7071174380325182244398336658881
339,1.7077123926878167642028149308018
340,1.7083055957895857956982346614577
341,1.7088970576362541380518068596466
342,1.7094867884358057930254074748817
343,1.7100747983068370663171783356225
344,1.7106610972795979198983242740499
345,1.7112456952970193747202270023149
346,1.7118286022157244385849989409399
347,1.7124098278070261245382504643385
348,1.7129893817579093715069770690751
349,1.7135672736720004121073708378292
350,1.7141435130705211299634437356006
351,1.7147181093932304941405456492376
352,1.7152910719993527530602047818123
353,1.7158624101684916722758730969471
354,1.7164321331015322305881503703724
355,1.7170002499215301397851533494927
356,1.7175667696745873978002171899585
357,1.7181317013307171143351094766638
358,1.7186950537846968529589577747249
359,1.7192568358569062348340239766352
360,1.7198170562941577419970108348446
361,1.7203757237705124650780651070637
362,1.7209328468880872770691498737944
363,1.7214884341778480287687891028837
364,1.7220424941003937899096856503546
365,1.7225950350467303723522432071136
366,1.7231460653390320130276023845766
367,1.7236955932313941086563865071059
368,1.7242436269105737909891614083450
369,1.7247901744967229751308984442633
370,1.7253352440441095941420372005946
371,1.7258788435418298732442302056826
372,1.7264209809145106001287889284955
373,1.7269616640230013581032463783293
374,1.7275009006650610305754338754615
375,1.7280386985760292684657644535533
376,1.7285750654294943767844677404971
377,1.7291100088379494096066684205446
378,1.7296435363534396408779746600309
379,1.7301756554682032508758072570437
380,1.7307063736153019851141349609950
381,1.7312356981692446611508992893318
382,1.7317636364466006414921729961097
383,1.7322901957066079472792112797947
384,1.7328153831517709764834785870015
385,1.7333392059284514478903350428519
386,1.7338616711274532295479783466368
387,1.7343827857845968010445804725464
388,1.7349025568812872864361594806886
389,1.7354209913450767325355376370843
390,1.7359380960502178216944129908534
391,1.7364538778182093360421471674502
392,1.7369683434183369815845242604272
393,1.7374814995682070456726061248123
394,1.7379933529342714689640835053620
395,1.7385039101323471887747811445164
396,1.7390131777281294047132874632987
397,1.7395211622376983965326300889619
398,1.7400278701280199023594526436268
399,1.7405333078174376231187391541109
400,1.7410374816761621531385222554704
401,1.7415403980267523858820824682410
402,1.7420420631445901400522178160689
403,1.7425424832583508268358008918182
404,1.7430416645504680514078816185591
405,1.7435396131575896141704715177929
406,1.7440363351710310207907390698737
407,1.7445318366372236177899911280122
408,1.7450261235581548569091525649158
409,1.7455192018918035493604775072238
410,1.7460110775525726244764067839378
411,1.7465017564117136528081242544717
412,1.7469912442977467162971594792572
413,1.7474795469968767046151698613713
414,1.7479666702534024615537154419794
415,1.7484526197701230654631480943216
416,1.7489374012087376734117455946053
417,1.7494210201902417775900931806443
418,1.7499034822953170372371466975461
419,1.7503847930647189646390007826119
420,1.7508649579996574471643905625540
421,1.7513439825621740575624451576059
422,1.7518218721755154341674938703655
423,1.7522986322245005671959697402010
424,1.7527742680558856049035915661558
425,1.7532487849787225590087389160532
426,1.7537221882647155162680585056897
427,1.7541944831485718408803559061230
428,1.7546656748283483814556706249335
429,1.7551357684657965949835975363243
430,1.7556047691866994499564752601666
431,1.7560726820812076123511955597966
432,1.7565395122041720640349747650463
433,1.7570052645754684915420076479533
434,1.7574699441803245432117343244541
435,1.7579335559696377784141540053606
436,1.7583961048602922099071311822131
437,1.7588575957354716007493626127637
438,1.7593180334449684978885364355793
439,1.7597774228054896837837075754396
440,1.7602357686009591173343962986821
441,1.7606930755828155240252617853760
442,1.7611493484703081989916997025620
443,1.7616045919507906707615042616329
444,1.7620588106800068451034280056889
445,1.7625120092823789597038993565119
446,1.7629641923512883740818206338537
447,1.7634153644493563639740362353035
448,1.7638655301087181384589390841240
449,1.7643146938312979203848331809759
450,1.7647628600890772426141655618883
451,1.7652100333243639632432141891787
452,1.7656562179500548412152795839715
453,1.7661014183498974154689820253589
454,1.7665456388787475766418005038413
455,1.7669888838628264552728919153354
456,1.7674311575999719235793784666243
457,1.7678724643598894065867495432714
458,1.7683128083843983985868020313216
459,1.7687521938876771989261480018768
460,1.7691906250565055095468628563664
461,1.7696281060505027440858414980293
462,1.7700646410023652616636522820369
463,1.7705002340181011292199669853205
464,1.7709348891772605733849442249693
465,1.7713686105331660907103894947770
466,1.7718014021131393470457342820703
467,1.7722332679187241466655519274143
468,1.7726642119259104868821191342576
469,1.7730942380853521749337621806751
470,1.7735233503225855317844618433388
471,1.7739515525382434500410096695773
472,1.7743788486082691036982937486069
473,1.7748052423841246607161319941330
474,1.7752307376930025025255630569740
475,1.7756553383380278733245423425861
476,1.7760790480984654730762384676889
477,1.7765018707299203273147741410701
478,1.7769238099645376098594353983931
479,1.7773448695112003079334068906373
480,1.7777650530557251243845065612979
481,1.7781843642610551679995273816283
482,1.7786028067674530008181058947823
483,1.7790203841926894225661938900827
484,1.7794371001322308120854766936405
485,1.7798529581594265027617871065369
486,1.7802679618256907768731774097153
487,1.7806821146606863277697808424856
488,1.7810954201725037865040983294644
489,1.7815078818478405411467944948633
490,1.7819195031521767119672396733376
491,1.7823302875299504168214767012821
492,1.7827402384047309149896187799431
493,1.7831493591793896045338277302341
494,1.7835576532362699672741199743079
495,1.7839651239373546539420999222167
496,1.7843717746244329539970748219314
497,1.7847776086192643356875736593456
498,1.7851826292237420016802170377498
499,1.7855868397200539576426875778621
500,1.785990243370843724322381536773
501,1.786392843419366439201837604938
502,1.786794643089647802954353029600
503,1.787195645586637338870829297683
504,1.787595854096363809139643088204
505,1.787995271786085635488895640738
506,1.788393901804442054326331271526
507,1.788791747281602854448538599842
508,1.789188811329416337327088632914
509,1.789585097041553730910232094922
510,1.789980607493656110225307329555
511,1.790375345743477055912282624703
512,1.790769314831024950937423326950
513,1.791162517778703531286022192516
514,1.791554957591451367159918789835
515,1.791946637256880649048943560970
516,1.792337559745413489141568082469
517,1.792727728010416812945188676783
518,1.793117144988337626643835436105
519,1.793505813598835442281461056613
520,1.793893736744914717927324853268
521,1.794280917313054108210231079242
522,1.794667358173336801589264826736
523,1.795053062179578381689435242660
