Eigenstate,Potential Energy
1,0.500000000021735899911185133948751708
2,0.64623093779299517443714414625068161
3,0.73633761012173782699269108173528689
4,0.79966527868230561426071947222214547
5,0.8480465767893525045145414045340963
6,0.8870659991970425629048659445839416
7,0.9197208273433105639467972079734146
8,0.9477838476049820650434977464160859
9,0.9723835589882696563242413667505174
10,0.9942802156417051524521680314865605
11,1.0140093877063013572681316205890050
12,1.0319621704866697579974885241868127
13,1.0484326940486047359598418677660104
14,1.0636476560752407279482985285125853
15,1.0777854376812344763277169013473363
16,1.090988908283208505989533022650785
17,1.103374259061254525934429474555463
18,1.115037253965132353337070322403247
19,1.126057752818247227293136608035838
20,1.136503048951586082465474892460622
21,1.146430375285414634985261356337073
22,1.155888815488017466683671246717728
23,1.164920781912222656186883053641666
24,1.173563172995823928375656419807543
25,1.181848290057507044764092511609737
26,1.189804571104437557873049745266225
27,1.197457183794836653382118178933003
28,1.204828508797020995988966915318985
29,1.211938536991354674264574130392764
30,1.218805198312073771094524440140355
31,1.225444635880005586641680786230403
32,1.231871435999304956348186082111423
33,1.238098822281682302595747852196326
34,1.244138820411051792667654381098565
35,1.250002398722332910103266447683414
36,1.255699588734659868108444083097239
37,1.261239588975168745270720016001978
38,1.266630854799113480771371332593806
39,1.271881176414213216838048542039350
40,1.276997746921312692693365604288694
41,1.281987221866687120580638425745497
42,1.286855771546330372981119280468861
43,1.291609127096078965252707820894381
44,1.296252621233330302442693255455382
45,1.300791224378544090052498725491341
46,1.305229576771579525957890470987540
47,1.309572017104444278372696741120783
48,1.313822608114444890509557096671210
49,1.317985159517065708706199021145569
50,1.32206324860378071714218798854452
51,1.32606023878453569980678761747305
52,1.32997929631629293608607474914485
53,1.33382340542658051779727917058612
54,1.33759538201342724404714697053181
55,1.34129788607958855778346675314573
56,1.34493343303889441778734648003806
57,1.34850440401535103473786445602737
58,1.35201305524083121369242869157882
59,1.35546152664443409805326541349185
60,1.35885184971557060239017087899170
61,1.36218595471326659398673774458463
62,1.36546567728587487786527306024160
63,1.36869276455814515102629636495127
64,1.37186888073628861171752387347491
65,1.37499561227613906957534907792240
66,1.37807447265466506342856677595085
67,1.38110690678082520222897917548251
68,1.38409429507800278376557943826696
69,1.38703795726694307509274191830073
70,1.38993915587518837033929804874240
71,1.39279909949640723783459988514996
72,1.39561894582071612610822771456776
73,1.39839980445503849191675842120077
74,1.40114273955072776489851211546738
75,1.40384877225404936235438091088986
76,1.40651888299366741089778435033656
77,1.40915401361797943329882769589955
78,1.41175506939397646066767300792128
79,1.41432292087825921013000912274196
80,1.41685840566990284250311889964241
81,1.41936233005401347300453824191577
82,1.42183547054405815747181956620919
83,1.42427857533036134278231675020158
84,1.42669236564153647844581184144633
85,1.42907753702506221016914730920221
86,1.43143476055269671080274228122889
87,1.43376468395596623327901999618859
88,1.43606793269654059241708708059556
89,1.43834511097592478030652844762227
90,1.44059680268855270325390512769371
91,1.44282357232204757622486569093430
92,1.44502596580812521317566167284366
93,1.44720451132735419661221846775346
94,1.44935972007074398097683349209380
95,1.45149208696091083043354647668234
96,1.45360209133536966950681385156750
97,1.45569019759431558291851562075490
98,1.45775685581508582667360566019043
99,1.45980250233533974025560244569292
100,1.46182756030684760937704522416083
101,1.46383244022165022457555849550983
102,1.46581754041222530622509349819729
103,1.46778324752718905291901496022278
104,1.46972993698395380547134470927289
105,1.47165797339966974502548924022333
106,1.47356771100168777951614562500968
107,1.47545949401870269077461999299782
108,1.47733365705365637501341506575649
109,1.47919052543941241589179521119580
110,1.48103041557815080923896431316098
111,1.48285363526536579731296969377415
112,1.48466048399930033683997523169253
113,1.48645125327659518928447280433525
114,1.48822622687488186404465174397420
115,1.48998568112300819676459512478721
116,1.49172988515953701330671857113921
117,1.49345910118012661692113335638827
118,1.49517358467436080504303146441430
119,1.49687358465256240843289154753499
120,1.49855934386309850313932345262169
121,1.50023109900064717852016105983512
122,1.50188908090587683142459346021516
123,1.50353351475695676370715454333157
124,1.50516462025330018043571103419791
125,1.50678261179191111989251179986838
126,1.50838769863669164916975804579962
127,1.50998008508104508127479549244230
128,1.51155997060408838247013808990701
129,1.51312755002077486533539115380342
130,1.51468301362620988117092074065027
131,1.51622654733442682124502663230682
132,1.51775833281187575918555244928269
133,1.51927854760586528523295042087982
134,1.52078736526818680711294212800237
135,1.52228495547413248394443716748878
136,1.52377148413711427206798255593373
137,1.52524711351907825373648501027016
138,1.52671200233689480761929607273336
139,1.52816630586490307416514513724565
140,1.52961017603377272290118850695357
141,1.53104376152584147125541230453692
142,1.53246720786707873122257468503454
143,1.53388065751581711002461486481604
144,1.53528424994838631127947963480744
145,1.53667812174177979543310815615319
146,1.53806240665347668945854315498001
147,1.53943723569853323286007534255095
148,1.54080273722405908898691966354247
149,1.54215903698118032258676745050010
150,1.54350625819459268445229058533613
151,1.54484452162980111738986460582743
152,1.54617394565813578265526068499906
153,1.54749464631963355652425906648142
154,1.54880673738386889621417506068628
155,1.55011033040881231112255202152467
156,1.55140553479779430571921747936092
157,1.55269245785464584066775589725790
158,1.55397120483708713025013238958150
159,1.5552418790084284489000705016711
160,1.5565045816876492843551452810035
161,1.5577594122979143335187820821153
162,1.5590064684135858021037772568874
163,1.5602458458057868613268411495109
164,1.5614776384865708982193962460177
165,1.5627019387517451597424735775461
166,1.5639188372223993062646205859076
167,1.5651284228851861066925106092205
168,1.5663307831313969641379219919179
169,1.5675260037948773341818878183910
170,1.5687141691888217788218734236021
171,1.5698953621414888505329416915450
172,1.5710696640308736730710087007666
173,1.5722371548183736213190059709067
174,1.5733979130814829436601420374457
175,1.5745520160455503117813679263577
176,1.5756995396146290042299039100958
177,1.5768405584014529842304158937039
178,1.5779751457565680261290582836269
179,1.5791033737966443353802085764842
180,1.5802253134320016084448739751837
181,1.5813410343933691811567797961780
182,1.5824506052579089609115204633664
183,1.5835540934745241919226060450579
184,1.5846515653884782950502202684720
185,1.5857430862653455902958197989828
186,1.5868287203143148705515747315939
187,1.5879085307108696270715927429760
188,1.5889825796188603629488378672112
189,1.5900509282119927256547310141465
190,1.5911136366947471096853210507207
191,1.5921707643227489518316501305573
192,1.5932223694226061012424897103006
193,1.5942685094112315680918811096578
194,1.5953092408146649915980526739792
195,1.5963446192864107597157943932044
196,1.5973746996253064723649743031181
197,1.5983995357929361234784848902309
198,1.5994191809306021638107943607228
199,1.6004336873758692783225821078875
200,1.6014431066786938183025066414233
201,1.6024474896171498646048158228620
202,1.6034468862127652981142917135594
203,1.6044413457454785321204023043566
204,1.6054309167682275214622893785815
205,1.6064156471211810137566011982994
206,1.6073955839456250614050742840432
207,1.6083707736975106650073657004875
208,1.6093412621606767695837825890328
209,1.6103070944597543564355022210519
210,1.6112683150727631262413345458978
211,1.6122249678434081323473697438969
212,1.6131770959930865913717230893528
213,1.6141247421326092490122014110337
214,1.6150679482736512767405034127535
215,1.6160067558399319056076017785199
216,1.6169412056781367516108106945738
217,1.6178713380685867916579351362462
218,1.6187971927356629625714391995285
219,1.6197188088579896560614120683612
220,1.6206362250783896177879998604325
221,1.6215494795136081527957573525958
222,1.6224586097638238346780564102026
223,1.6233636529219392792951377547028
224,1.6242646455826670423364429825894
225,1.6251616238514131972620304540500
226,1.6260546233529621315560392184687
227,1.6269436792399712041308399693228
228,1.6278288262012770740732196036608
229,1.6287100984700208528679085404749
230,1.6295875298315967663268468184640
231,1.6304611536314261154785345069018
232,1.6313310027825669453221503709998
233,1.6321971097731544069344875825372
234,1.6330595066736879589791792792546
235,1.6339182251441585797016364777650
236,1.6347732964410256881611485932386
237,1.6356247514240473948101084263117
238,1.6364726205629658124140159641201
239,1.6373169339440528628744546248212
240,1.6381577212765187333536646138126
241,1.6389950118987872630305397235632
242,1.6398288347846411164190046394227
243,1.6406592185492407740021507844815
244,1.6414861914550190283983228273476
245,1.6423097814174553591495558908843
246,1.6431300160107327046793125269738
247,1.6439469224732780131841633918217
248,1.6447605277131941529925599079901
249,1.6455708583135781508850311206346
250,1.6463779405377361424750473666733
251,1.6471818003342929340562409261754
252,1.6479824633421989738093864176264
253,1.6487799548956398039658224382188
254,1.6495743000288476501779240602177
255,1.6503655234808190275194126540099
256,1.6511536496999384478758400450583
257,1.6519387028485146194629659291697
258,1.6527207068072255825252057003647
259,1.6534996851794795840579547660735
260,1.6542756612956920772516231392607
261,1.6550486582174791587078059655873
262,1.6558186987417721681530035411668
263,1.6565858054048523005298110276984
264,1.6573500004863106806169468331664
265,1.6581113060129324247035535838914
266,1.6588697437625068563481445176685
267,1.6596253352675670887522206243810
268,1.6603781018190590067453828124201
269,1.6611280644699439175789610629562
270,1.6618752440387305939501017836711
271,1.6626196611129459924904273018390
272,1.6633613360525386265609678308452
273,1.6641002889932220357451204920414
274,1.6648365398497555603345332841983
275,1.6655701083191662956644931697038
276,1.6663010138839105039282447200872
277,1.6670292758149819667611628212791
278,1.6677549131749590325191760296582
279,1.6684779448210018606970040720160
280,1.6691983894077919563324725568739
281,1.6699162653904218832008402798522
282,1.6706315910272326520480904648510
283,1.6713443843826019962900888744865
284,1.6720546633296806916934357556363
285,1.6727624455530837272792267724307
286,1.6734677485515323521756469761778
287,1.6741705896404520576909543501909
288,1.6748709859545228963633996839919
289,1.6755689544501867860330836927759
290,1.6762645119081125314431578690151
291,1.6769576749356164042915731311943
292,1.6776484599690411666199687527226
293,1.6783368832760974432952301650691
294,1.6790229609581624804783859117488
295,1.6797067089525383772062902255549
296,1.6803881430346773756265823796268
297,1.6810672788203641415909706049134
298,1.6817441317678643523385495684867
299,1.6824187171800363941048891681851
300,1.6830910502064079202402855450162
301,1.6837611458452176812526758512797
302,1.6844290189454247196858263114535
303,1.6850946842086821029389863179484
304,1.6857581561912787715352975228533
305,1.6864194493060509313427638073581
306,1.6870785778242622529453900883610
307,1.6877355558774500601151594058946
308,1.6883903974592449858110719104372
309,1.6890431164271601849680425005077
310,1.6896937265043504392198398471872
311,1.6903422412813447484561219185779
312,1.6909886742177499223436209767282
313,1.6916330386439265645579290479832
314,1.6922753477626392539967840604570
315,1.6929156146506802426156522792161
316,1.6935538522604680455249774087273
317,1.6941900734216184619517196975999
318,1.6948242908424933783075284195413
319,1.6954565171117244949233371027550
320,1.6960867646997119777061115223515
321,1.6967150459601019536494640045022
322,1.6973413731312389646268750418298
323,1.6979657583375968935042400542325
324,1.6985882135911873397086330017774
325,1.6992087507929472062322414406474
326,1.6998273817341037352952331019419
327,1.7004441180975198134206285110206
328,1.7010589714590167351135765854310
329,1.7016719532886794000007846259465
330,1.7022830749521403750937562287785
331,1.7028923477118442607495125805274
332,1.7034997827282934215502796862082
333,1.7041053910612754606370175494990
334,1.7047091836710706214998849251293
335,1.7053111714196434321377220660901
336,1.7059113650718146496173803214484
337,1.7065097752964163772587340604022
338,1.7071064126674314132763536923363
339,1.7077012876651128953642622220268
340,1.7082944106770903325436722480894
341,1.7088857919994577378303882189797
342,1.7094754418378463588505170279018
343,1.7100633703084816441733451586007
344,1.7106495874392244390471443980475
345,1.7112341031705982298518359934402
346,1.7118169273567999120424361272504
347,1.7123980697666976469210920180743
348,1.7129775400848126189410533277115
349,1.7135553479122882384463215381516
350,1.7141315027678443321670501552288
351,1.7147060140887184090535650273480
352,1.7152788912315936837941273974521
353,1.7158501434735131423738283718077
354,1.7164197800127810641312955325119
355,1.7169878099698523655767104906264
356,1.7175542423882079757403053295853
357,1.7181190862352194820761967757648
358,1.7186823504030022909095410322944
359,1.7192440437092530475527157879258
360,1.7198041748980802539969495448729
361,1.7203627526408198290358769141592
362,1.7209197855368420924088564743563
363,1.7214752821143447685653689136154
364,1.7220292508311370340325010075290
365,1.7225817000754128447413927754682
366,1.7231326381665124209714162533409
367,1.7236820733556747819114413452898
368,1.7242300138267781185568455791567
369,1.7247764676970726374776672415954
370,1.7253214430179015886230649432983
371,1.7258649477754133304616734888866
372,1.7264069898912633889279790005306
373,1.7269475772233064768805429975861
374,1.7274867175662827825429357477873
375,1.7280244186524892184880094123469
376,1.7285606881524470873723415762108
377,1.7290955336755579536228297332299
378,1.7296289627707508884775848168004
379,1.7301609829271229281747198938989
380,1.7306916015745695020447063726791
381,1.7312208260844077059335122194090
382,1.7317486637699895391173136763550
383,1.7322751218873097793620746454118
384,1.7328002076356034598192169958655
385,1.7333239281579365690032328629512
386,1.7338462905417906324941709833806
387,1.7343673018196369256913216863067
388,1.7348869689695042544056586062553
389,1.7354052989155409779653148986654
390,1.7359222985285684639279397643529
391,1.7364379746266262913278953475427
392,1.7369523339755128108219631566712
393,1.7374653832893185352061293422358
394,1.7379771292309509413863722778341
395,1.7384875784126535406614739189685
396,1.7389967373965188681706036968586
397,1.7395046126949950213984555523242
398,1.7400112107713857558574353708894
399,1.7405165380403427037220524016888
400,1.7410206008683540153580526006617
401,1.7415234055742254726495273107087
402,1.7420249584295548193251990470155
403,1.7425252656592021290072330576059
404,1.7430243334417541040561975439834
405,1.7435221679099797706413489161397
406,1.7440187751512836790542329271732
407,1.7445141612081537259695072809392
408,1.7450083320786011018305523291235
409,1.7455012937165952244200858838312
410,1.7459930520324961730780149098097
411,1.7464836128934788835675644769185
412,1.7469729821239526861624911251250
413,1.7474611655059772659982537551732
414,1.7479481687796714695158477424549
415,1.7484339976436192409443748731485
416,1.7489186577552691184383648752993
417,1.7494021547313301383401710814222
418,1.7498844941481613107868891884494
419,1.7503656815421589451567472709420
420,1.7508457224101368072601574275478
421,1.7513246222097030604424989148760
422,1.7518023863596332721840134058647
423,1.7522790202402373223201639782692
424,1.7527545291937238265900537480171
425,1.7532289185245584548554940743168
426,1.7537021934998197508133950051707
427,1.7541743593495499378132932826512
428,1.7546454212671007244500235431240
429,1.7551153844094780223002242101340
430,1.7555842538976784378902570542967
431,1.7560520348170250425300063315875
432,1.7565187322174995695081429322360
433,1.7569843511140663765251012704592
434,1.7574488964869992712817356057594
435,1.7579123732821990238764579167705
436,1.7583747864115094669808755822828
437,1.7588361407530303451415263066740
438,1.7592964411514258952505728954693
439,1.7597556924182298394674412307013
440,1.7602138993321478617823350652764
441,1.7606710666393547280513867309508
442,1.7611271990537896131259880597573
443,1.7615823012574492827484851253232
444,1.7620363779006737495600229564875
445,1.7624894336024337338553715083405
446,1.7629414729506109534079101743452
447,1.7633925005022784115083775697464
448,1.7638425207839739013925107763215
449,1.7642915382919745675353997887058
450,1.7647395574925646762273843644557
451,1.7651865828223040984976441921910
452,1.7656326186882903467066638675128
453,1.7660776694684199078504270558620
454,1.7665217395116452624971097564344
455,1.7669648331382312131991452492130
456,1.7674069546400058193506251898430
457,1.7678481082806106341669880992552
458,1.7682882982957466396529864142538
459,1.7687275288934183934536135793298
460,1.7691658042541760298992274266137
461,1.7696031285313529649389554103784
462,1.7700395058513025179803098538681
463,1.7704749403136320543744762533594
464,1.7709094359914328094197270681234
465,1.7713429969315093625866006640514
466,1.7717756271546058926273293414446
467,1.7722073306556284940530969670294
468,1.7726381114038685705850374821134
469,1.7730679733432197822421746327595
470,1.7734969203923960705717831647914
471,1.7739249564451450290939091063744
472,1.7743520853704609165362037333290
473,1.7747783110127926637256638762902
474,1.7752036371922543780942117008988
475,1.7756280677048272685161749094016
476,1.7760516063225655042457246278755
477,1.7764742567937963409123280626010
478,1.7768960228433191895244814996953
479,1.7773169081726025178259518091304
480,1.7777369164599789785460500895462
481,1.7781560513608373153779025103188
482,1.7785743165078146154302411522617
483,1.7789917155109842881076996357466
484,1.7794082519580425901311630571435
485,1.7798239294144951735304029704093
486,1.7802387514238382413576651635768
487,1.7806527215077411598585505707589
488,1.7810658431662251235403795044768
489,1.7814781198778411011901705223787
490,1.7818895550998449258381138566868
491,1.7823001522683716628179346233164
492,1.7827099147986078439769713157963
493,1.7831188460849615429086553222899
494,1.7835269495012313851090169185503
495,1.7839342284007726854120108391469
496,1.7843406861166639569819269202908
497,1.7847463259618694772376590115465
498,1.7851511512294018558150631739121
499,1.7855551651924821017368632513869
500,1.785958371104699320109964485098
501,1.786360772200165784204758667504
502,1.786762371693674837910349692367
503,1.787163172780853096501843407872
504,1.787563178638314789362431870502
505,1.787962392423811091927600729202
506,1.788360817276380176737198179303
507,1.788758456316495831416525055940
508,1.789155312646214283335529639002
509,1.789551389349317461622990428015
510,1.789946689491458749555157908219
511,1.790341216120304458175488546217
512,1.790734972265674921119231107059
513,1.791127960939683826157942747853
514,1.791520185136876459703001265486
515,1.791911647834367238344130341218
516,1.792302351991974737588110159285
517,1.792692300552355292365939966473
518,1.793081496441136954523639611941
519,1.793469942567050589070253452986
520,1.793857641822060966016183798887
521,1.794244597081494642860972139430
522,1.794630811204168913761872320050
523,1.795016287032518262370456955239
