Eigenstate,Potential Energy
1,0.500000000024371024767173444123980331
2,0.64623093781019588915815970107105060
3,0.73633761017226350628632094661531405
4,0.79966527878754474292610737380699103
5,0.8480465769716480079470544215211339
6,0.8870659994791282651314790174191922
7,0.9197208277481034895886634703104204
8,0.9477838481554957659905327634089526
9,0.9723835597075738583444735047112106
10,0.9942802165529052278006572339109874
11,1.0140093888325271304430715878189869
12,1.0319621718510690674996945091698171
13,1.0484326956743395852121527610472502
14,1.0636476579854849262548995410584495
15,1.0777854398991721787212780603701114
16,1.090988910832033317691229139301059
17,1.103374261964168974064307141838150
18,1.115037257245347604889519143889908
19,1.126057756498982976732266580055549
20,1.136503053056070558955610269875486
21,1.146430379836884695808184328080728
22,1.155888820509718753939465274002172
23,1.164920787427409800769099599323104
24,1.173563179027760789820415446601700
25,1.181848296629466978717099203690937
26,1.189804578239703705103626489991371
27,1.197457191516702245817617085813790
28,1.204828517128789676351235684660626
29,1.211938545956340826696918343146467
30,1.218805207933602860762598656617472
31,1.225444646181414506735873580173270
32,1.231871447003942381250318758610020
33,1.238098834012909046228624121071687
34,1.244138832892241171242945985965131
35,1.250002411976871108636286445308395
36,1.255699602785946310188326513900623
37,1.261239603846616465669316554092732
38,1.266630870514149500549615259747612
39,1.271881192996278920669012791556054
40,1.276997764393864208170042342317843
41,1.281987240253195699316088714551386
42,1.286855790870282773341008394466504
43,1.291609147380977836586826351078794
44,1.296252642502694570704016322074432
45,1.300791246655909344710556740500714
46,1.305229600080498408128424866785081
47,1.309572041468486870098303303429951
48,1.313822633557199105136739595814045
49,1.317985186062137682313306864211505
50,1.32206327627479520098040102026931
51,1.32606026760513645372285373481963
52,1.32997932631014312290110559866220
53,1.33382343661736309862071210409999
54,1.33759541442484537450911564488519
55,1.34129791973536598517239947625534
56,1.34493346796277587908270943181022
57,1.34850444023110265553065494327555
58,1.35201309277224090798838743240063
59,1.35546156551531196895582072583814
60,1.35885188994974934366193812921993
61,1.36218599633460189248998607531018
62,1.36546572031824581688317525231316
63,1.36869280902545461446801871892188
64,1.37186892666246368921131027053931
65,1.37499565968513146245474732088847
66,1.37807452157045149161780899036333
67,1.38110695722740781203431910243232
68,1.38409434707940955658009342540757
69,1.38703801084722823702273754156318
70,1.38993921105843280276103467689144
71,1.39279915630671888889057270506387
72,1.39561900428223042315269464908354
73,1.39839986459191875492066376346086
74,1.40114280138716562082431933907061
75,1.40384883581426516051171077091853
76,1.40651894830191063929106234943204
77,1.40915408069852913597846762074799
78,1.41175513827114165609659706649010
79,1.41432299157637931057756666475536
80,1.41685847821334807447870933964879
81,1.41936240446718529874347098786585
82,1.42183554685138969748615973276023
83,1.42427865355631779948966189913853
84,1.42669244581061556088913160112584
85,1.42907761916179455984100015701138
86,1.43143484468164632858735098136339
87,1.43376477010173090752584841374924
88,1.43606802088375232815971619702986
89,1.43834520122925022964077547103178
90,1.44059689503269359688926282214111
91,1.44282366678174115622349750502009
92,1.44502606240814466689328794371881
93,1.44720461009250909185539065815353
94,1.44935982102588070239118344246085
95,1.45149219013091301713774865816590
96,1.45360219674515865398709378803958
97,1.45569030526885083119866394044950
98,1.45775696577936537977556546557283
99,1.45980261461440065696581532991579
100,1.46182767492576641033383801175893
101,1.46383255720554333769297001095022
102,1.46581765978624951346864735700337
103,1.46778336931654193844904207807978
104,1.46973006121387420516956988067643
105,1.47165810009543819742070201442621
106,1.47356784018862697812486883249015
107,1.47545962572217793787280088525387
108,1.47733379129907603685525663279719
109,1.47919066225222837939196616595949
110,1.48103055498385894013449933489538
111,1.48285377728950639982129992026155
112,1.48466062866745861482961689365530
113,1.48645140061440170897499952266361
114,1.48822637690801301825270205447358
115,1.48998583387718667071272934869499
116,1.49173004066053225201208525775899
117,1.49345925945375529418097733991618
118,1.49517374574648729403419003211922
119,1.49687374854909925394252867577282
120,1.49855951061000689544426102512128
121,1.50023126862393742893226600090790
122,1.50188925343160884951978616359615
123,1.50353369021124053625571132762649
124,1.50516479866229625205163820202667
125,1.50678279318183107541988283019810
126,1.50838788303379859782400875230981
127,1.50998027251165414255709285910941
128,1.51156016109456717387302181193395
129,1.51312774359754399185803483068666
130,1.51468321031574342666244586433636
131,1.51622674716325284159441853122347
132,1.51775853580657677737686840379727
133,1.51927875379307878828457849311958
134,1.52078757467460574491983183864144
135,1.52228516812650577004231236923236
136,1.52377170006224728633867366812030
137,1.52524733274383334707364041301231
138,1.52671222488819180857385241145485
139,1.52816653176971979759007231673131
140,1.52961040531914548061509481257790
141,1.53104399421886558474476530219763
142,1.53246744399490904640246341710188
143,1.53388089710566851407797937780949
144,1.53528449302753425159500085414439
145,1.53667836833756080066197078571572
146,1.53806265679328889271048583932858
147,1.53943748940983689705923997085429
148,1.54080299453437713440815817642225
149,1.54215929791809885659317575655992
150,1.54350652278576153345492231368383
151,1.54484478990293436105068550775575
152,1.54617421764101229035451205294072
153,1.54749492204009752611360915613175
154,1.54880701686983039507711932344754
155,1.55011061368824781956369019585011
156,1.55140582189874726270419542941449
157,1.55269274880522719193575781319455
158,1.55397149966547587882102846140785
159,1.5552421777428722079983774784646
160,1.5565048843564648327732293079447
161,1.5577597189294881734417751297660
162,1.5590067790363747194188762988824
163,1.5602461604483184884398442729840
164,1.5614779571774442794014276919786
165,1.5627022615196313190300615097316
166,1.5639191640960418179364019353582
167,1.5651287538934016683460464991227
168,1.5663311183030759723902670373835
169,1.5675263431589844630176265358773
170,1.5687145127743965606126925555673
171,1.5698957099776462597527734059849
172,1.5710700161468047127310760013051
173,1.5722375112433459121472519395413
174,1.5733982738448413160496781000444
175,1.5745523811767174005327155524461
176,1.5756999091431058461121087799684
177,1.5768409323568196183861205957902
178,1.5779755241684840973489626449681
179,1.5791037566948497002724182334755
180,1.5802257008463169445248610994492
181,1.5813414263536965988838855319764
182,1.5824510017942326186980820317184
183,1.5835544946169109141420044251878
184,1.5846519711670781930703357837556
185,1.5857434967103926865645669228672
186,1.5868291354561277257613898403842
187,1.5879089505798519704299494522944
188,1.5889830042455017255820839428625
189,1.5900513576268690771726691049156
190,1.5911140709285214979342649007528
191,1.5921712034061721458638519389076
192,1.5932228133865172375299795392373
193,1.5942689582865588000130718593232
194,1.5953096946324261422256440122505
195,1.5963450780777139779346543217915
196,1.5973751634213508923490058901916
197,1.5984000046250125275556640621012
198,1.5994196548300936487457119887090
199,1.6004341663742519250461860071949
200,1.6014435908075373651188540525499
201,1.6024479789081183839049101785290
202,1.6034473806976178766273382170237
203,1.6044418454560699547330245594808
204,1.6054314217365089586364966761183
205,1.6064161573792007125774764616133
206,1.6073960995255290402894918916296
207,1.6083712946315434121052550513275
208,1.6093417884811819449036645036568
209,1.6103076261991754977262894111497
210,1.6112688522636443586626799510732
211,1.6122255105183948819610693469582
212,1.6131776441849263024868952990513
213,1.6141252958741521054173203692274
214,1.6150685075978509268555308861975
215,1.6160073207798461915897836173827
216,1.6169417762669284424479731508478
217,1.6178719143395243202833526065537
218,1.6187977747221211670345987758512
219,1.6197193965934505247894008420132
220,1.6206368185964430389723525005486
221,1.6215500788479526679399824446375
222,1.6224592149482673963413309913705
223,1.6233642639904000130679586402018
224,1.6242652625691740130842345224418
225,1.6251622467901071796731440101043
226,1.6260552522780963850307337556194
227,1.6269443141859122520482206774902
228,1.6278294672025054874733639625860
229,1.6287107455611320385867715039309
230,1.6295881830473017596217692993852
231,1.6304618130065523771825920907204
232,1.6313316683520591635657870542449
233,1.6321977815720753034732522629215
234,1.6330601847372191001667571088755
235,1.6339189095076011921475413577675
236,1.6347739871398014791129358887611
237,1.6356254484936993773002429318332
238,1.6364733240391591352117880696693
239,1.6373176438625756452837667461921
240,1.6381584376732829048978698063330
241,1.6389957348098294080657790807399
242,1.6398295642461233237178370813639
243,1.6406599545974514913497709468326
244,1.6414869341263739222438262071022
245,1.6423105307484981793551710492063
246,1.6431307720381361544108910349327
247,1.6439476852338446239865894419986
248,1.6447612972438571650940362133560
249,1.6455716346514023987746545059707
250,1.6463787237199189457984609547550
251,1.6471825903981649938744995388497
252,1.6479832603252252742665758350127
253,1.6487807588354205194113488762539
254,1.6495751109631190577898266788665
255,1.6503663414474544254754419575960
256,1.6511544747369490791193903192854
257,1.6519395349940506011114773676741
258,1.6527215460995768409689009451779
259,1.6535005316570767957973610424254
260,1.6542765149971076155226531898441
261,1.6550495191814280459435840669979
262,1.6558195670071130343321408400005
263,1.6565866810105883474612210097396
264,1.6573508834715906522116858194233
265,1.6581121964170515832846946894435
266,1.6588706416249079650501337238710
267,1.6596262406278414000614763995377
268,1.6603790147169472572346865659643
269,1.6611289849453373288882185275529
270,1.6618761721316718800668110174510
271,1.6626205968636303733837417397782
272,1.6633622795013148482234166700576
273,1.6641012401805933966967410306154
274,1.6648374988163809446446025724783
275,1.6655710751058612125465355088817
276,1.6663019885316481339646091169147
277,1.6670302583648942148136536657442
278,1.6677559036683375873832858467576
279,1.6684789432992992615570607957524
280,1.6691993959126226660761819044548
281,1.6699172799635633686520735925722
282,1.6706326137106264711769650895772
283,1.6713454152183548924604024154887
284,1.6720557023600656950076854626742
285,1.6727634928205412630823340206910
286,1.6734688040986713567786323937195
287,1.6741716535100511013767747032267
288,1.6748720581895313137376726866711
289,1.6755700350937258137825861320392
290,1.6762656010034764535661686332586
291,1.6769587725262737048642030565612
292,1.6776495660986356901636917765816
293,1.6783379979884495628108059847190
294,1.6790240842972702732126847279492
295,1.6797078409625788082186281434916
296,1.6803892837600074892219404439049
297,1.6810684283055222606881459126324
298,1.6817452900575712858419411481466
299,1.6824198843191966523490920672554
300,1.6830922262401109385775338778402
301,1.6837623308187390518537283744741
302,1.6844302129042274316254240130581
303,1.6850958871984177906379069256863
304,1.6857593682577889716315571377049
305,1.6864206704953683480653600157438
306,1.6870798081826120320642859211404
307,1.6877367954512510715423948649466
308,1.6883916462951111149283628551491
309,1.6890443745719016327568024752284
310,1.6896949940049750312706489146974
311,1.6903435181850592529348611813792
312,1.6909899605719613769929281926675
313,1.6916343344962436128126169567877
314,1.6922766531608734902932906475661
315,1.6929169296428475669758143561643
316,1.6935551768947900274956126887323
317,1.6941914077465237139819578439976
318,1.6948256349066189386468334863776
319,1.6954578709639172201239480828533
320,1.6960881283890299448140733660895
321,1.6967164195358158721699256822304
322,1.6973427566428335983495849796344
323,1.6979671518347724922759311193778
324,1.6985896171238610812405856926581
325,1.6992101644112546480312170182771
326,1.6998288054884002768074067373924
327,1.7004455520383821684789716575490
328,1.7010604156372444147798328897630
329,1.7016734077552962058941002500784
330,1.7022845397583959032992193527803
331,1.7028938229092154164003423083498
332,1.7035012683684859441785078003855
333,1.7041068871962254603886439540309
334,1.7047106903529461263110396021157
335,1.7053126887008459459696657986597
336,1.7059128930049807218488704726839
337,1.7065113139344191833354219229144
338,1.7071079620633823467178025794834
339,1.7077028478723631712304128177273
340,1.7082959817492326024628648955847
341,1.7088873739903277166929904438604
342,1.7094770348015244632727831657608
343,1.7100649742992946428369415465649
344,1.7106512025117471150213391279926
345,1.7112357293796550550061104109846
346,1.7118185647574667336583385902918
347,1.7123997184143033866134274089851
348,1.7129792000349409839994042140165
349,1.7135570192207794457092086450945
350,1.7141331854907968445419981608822
351,1.7147077082824906847976258001390
352,1.7152805969528059386703044147899
353,1.7158518607790491248004883075310
354,1.7164215089597898434423575515624
355,1.7169895506157501335117636340561
356,1.7175559947906798612852050272866
357,1.7181208504522213797756601773582
358,1.7186841264927627027746199354251
359,1.7192458317302749386871397214156
360,1.7198059749091429220678740090284
361,1.7203645647009807877156338916898
362,1.7209216097054389689156466180520
363,1.7214771184509972154321433163287
364,1.7220310993957486552345099437229
365,1.7225835609281731363146624723816
366,1.7231345113678987262551265346490
367,1.7236839589664542615489551901855
368,1.7242319119080097353915315452901
369,1.7247783783101091564808859291022
370,1.7253233662243915919932617311668
371,1.7258668836373032480349768213376
372,1.7264089384707995440417723708827
373,1.7269495385830371478337405913090
374,1.7274886917690602797973332027520
375,1.7280264057614719777572212053704
376,1.7285626882311017787460118989957
377,1.7290975467876616068753577536174
378,1.7296309889803930347125113761628
379,1.7301630222987077579571245092114
380,1.7306936541728180401756851070852
381,1.7312228919743600030224407869928
382,1.7317507430170068801094308934021
383,1.7322772145570769091801903693473
384,1.7328023137941308262803645761899
385,1.7333260478715625831725894027892
386,1.7338484238771839466405246162401
387,1.7343694488437987290097249032907
388,1.7348891297497705866751515893495
389,1.7354074735195850613108407421460
390,1.7359244870244030528581107966835
391,1.7364401770826060412211014471594
392,1.7369545504603366650361824778651
393,1.7374676138720321309890088392253
394,1.7379793739809490347643944176057
395,1.7384898373996824504886312212522
396,1.7389990106906789395192279015262
397,1.7395069003667431084767345324354
398,1.7400135128915377246399777131416
399,1.7405188546800759544822902254368
400,1.7410229320992100252925402041177
401,1.7415257514681123587874248562452
402,1.7420273190587499219170609255577
403,1.7425276410963546155902751239373
404,1.7430267237598875943948453776178
405,1.7435245731824949827442409522763
406,1.7440211954519610964712529663271
407,1.7445165966111562865739844713821
408,1.7450107826584769082947850643531
409,1.7455037595482802765940180348192
410,1.7459955331913171224838360861396
411,1.7464861094551558102245988187532
412,1.7469754941646018979597021846723
413,1.7474636931021141208336027574564
414,1.7479507120082132204248783956339
415,1.7484365565818879044420418525891
416,1.7489212324809943663011123253768
417,1.7494047453226522130576684291851
418,1.7498871006836339649151483564677
419,1.7503683041007524048075288608818
420,1.7508483610712407599634616079555
421,1.7513272770531296676221263281606
422,1.7518050574656202064884578465733
423,1.7522817076894508300543844341141
424,1.7527572330672618154956606734480
425,1.7532316389039536074903413345309
426,1.7537049304670426637838468211260
427,1.7541771129870122871159075100969
428,1.7546481916576584571816446947669
429,1.7551181716364345749989640197976
430,1.7555870580447879817722359000588
431,1.7560548559684957558904004463016
432,1.7565215704579969375574153152988
433,1.7569872065287165189351392067609
434,1.7574517691613922977190067827723
435,1.7579152633023924178030129382360
436,1.7583776938640314980068563085513
437,1.7588390657248835102163575237745
438,1.7592993837300903889831057937515
439,1.7597586526916670538688878378474
440,1.7602168773888039157289020880432
441,1.7606740625681640267670227792179
442,1.7611302129441784379896449897246
443,1.7615853331993394117325858547631
444,1.7620394279844861086119376859238
445,1.7624925019190920795358309888890
446,1.7629445595915455871051360705525
447,1.7633956055594299255496794761710
448,1.7638456443497969573788543234718
449,1.7642946804594417072289189750241
450,1.7647427183551701653247046879781
451,1.7651897624740678036265779713836
452,1.7656358172237616459871935984006
453,1.7660808869826816353654548936640
454,1.7665249761003176870219734985204
455,1.7669680888974760515433706153654
456,1.7674102296665302846695223239115
457,1.7678514026716715196043946167637
458,1.7682916121491544376818158230621
459,1.7687308623075414512839018637369
460,1.7691691573279447413287589186190
461,1.7696065013642639990256791611811
462,1.7700428985434230849199785551290
463,1.7704783529656042089718452449888
464,1.7709128687044777925464320801885
465,1.7713464498074319810227709631428
466,1.7717791002957989376898283362714
467,1.7722108241650771994171153467322
468,1.7726416253851551097113191807077
469,1.7730715079005278058268324506495
470,1.7735004756305152844405579249043
471,1.7739285324694758129681017307046
472,1.7743556822870189841025143135107
473,1.7747819289282137644474876333865
474,1.7752072762137990412070176106734
475,1.7756317279403855896552525158076
476,1.7760552878806619751598376302922
477,1.7764779597835947227225534192803
478,1.7768997473746274299927107140237
479,1.7773206543558777131036569327775
480,1.7777406844063323798794246080518
481,1.7781598411820393812513641050244
482,1.7785781283163001096361007795397
483,1.7789955494198574242362474306244
484,1.7794121080810822229805573518197
485,1.7798278078661600379431985727361
486,1.7802426523192722389958835530358
487,1.7806566449627786944362586927557
488,1.7810697892973964850389971362633
489,1.7814820888023778995879150946525
490,1.7818935469356855748923094450116
491,1.7823041671341669144447231843473
492,1.7827139528137263737805664126975
493,1.7831229073694955874188461967440
494,1.7835310341760024312923396369132
495,1.7839383365873372130296394576010
496,1.7843448179373192343740411660970
497,1.7847504815396594111218786637543
498,1.7851553306881228956929397672100
499,1.7855593686566891995115996207783
500,1.785962598699711945524046626576
501,1.786365024052073996715818539373
502,1.786766647929345415630384860109
503,1.787167473527935722832852015673
504,1.787567504025248297969701173893
505,1.787966742579829770700499485903
506,1.788365192331520131395178274918
507,1.788762856401601409426155443365
508,1.789159737892944558814046542547
509,1.789555839890152781910892606907
510,1.789951165459707344150590925589
511,1.790345717650109110730854302112
512,1.790739499492019705211388957239
513,1.791132513998400905549618985245
514,1.791524764164652953825471196919
515,1.791916252968752153738198680989
516,1.792306983371385966051549402097
517,1.792696958316086676564553089425
518,1.793086180729365421833219744010
519,1.793474653520843354426335030375
520,1.793862379583382804559437951247
521,1.794249361793215233175391521353
522,1.794635603010070252514343751555
523,1.795021106077302151170193261305
