Eigenstate,Potential Energy
1,0.500000000016181584801274825355045804
2,0.64623093775673953549452709738035329
3,0.73633761001523997512140845340162897
4,0.79966527846048321155984777108998343
5,0.8480465764051117305575235388821248
6,0.8870659986024660470636011357430116
7,0.9197208264900952701125715097324511
8,0.9477838464446220805920460800943768
9,0.9723835574721413480192321106428053
10,0.9942802137211105331881056299913904
11,1.0140093853324917804803476136241319
12,1.0319621676108595874411204110984221
13,1.0484326906219795581314104574992946
14,1.0636476520489624238775973479027492
15,1.0777854330064443987740516148092686
16,1.090988902911029466631325948273560
17,1.103374252942792008557705508200730
18,1.115037247051475208040603806835082
19,1.126057745060468007268321803182533
20,1.136503040300741128714334563609920
21,1.146430365692543979484668122496356
22,1.155888804904144602276739218381863
23,1.164920770288354206951659126329320
24,1.173563160282949244506688211045704
25,1.181848276206597739374792792353543
26,1.189804556066446998521030789197453
27,1.197457167520699417864701659379263
28,1.204828491237652299620014729156780
29,1.211938518097649774143303386693657
30,1.218805178034907351622879838043175
31,1.225444614170231129610715487945305
32,1.231871412807754098207276039130615
33,1.238098797559164180979485204275493
34,1.244138794108352383840158682435681
35,1.250002370790214358657041233478417
36,1.255699559123859810002053075728305
37,1.261239557636399625089785220955641
38,1.266630821683061863938392936022105
39,1.271881141471539097369100920627731
40,1.276997710102648796996874028024864
41,1.281987183122638207709955988670936
42,1.286855730827472531684414999768396
43,1.291609084352958908107662945375010
44,1.296252576416464657317254225722357
45,1.300791177438418689094547121924044
46,1.305229527658648692284674435392712
47,1.309571965769130110604062075706425
48,1.313822554507136545266436907553195
49,1.317985103588118681176766584828030
50,1.32206319030351611980190214005601
51,1.32606017806323953936477590416853
52,1.32997923312421538871853238216747
53,1.33382333971393520271846759282689
54,1.33759531373039049545986529393001
55,1.34129781517629869524337877548772
56,1.34493335946545101500902833860809
57,1.34850432772181418686479917937306
58,1.35201297617722080304822200548751
59,1.35546144476072905838707781045446
60,1.35885176496170818162556396287856
61,1.36218586703914161547982105374986
62,1.36546558664133900017510104253059
63,1.36869267089300612619788369512240
64,1.37186878400030954207555884037666
65,1.37499551241903766302462794466645
66,1.37807436962611288725537219161260
67,1.38110680053044693539599423586793
68,1.38409418555537546769148779992341
69,1.38703784442159536290632794538415
70,1.38993903965659977459673645136683
71,1.39279897985400737668751118325793
72,1.39561882270388396790916106946172
73,1.39839967781310159824786289579717
74,1.40114260933296153200838075107574
75,1.40384863840967626098732658117941
76,1.40651874547185622449914226808881
77,1.40915387236784449457928553364958
78,1.41175492436457688650907153111918
79,1.41432277201859813481451809640185
80,1.41685825292892664924726731371801
81,1.41936217338061102377908921854950
82,1.42183530988706002108810579893792
83,1.42427841063853902122525951306806
84,1.42669219686360163143348817924532
85,1.42907736410966587791843710942777
86,1.43143458344842853498028591847884
87,1.43376450261135367611640038711157
88,1.43606774706004815396888103458990
89,1.43834492099595321382961050210023
90,1.44059660831343822868612777194661
91,1.44282337350006109174100314977025
92,1.44502576248747150479826282558672
93,1.44720430345617114585481310656363
94,1.44935950759710177049670607804377
95,1.45149186983281114767108791924458
96,1.45360186950074490828828018512002
97,1.45568997100102804299879939095526
98,1.45775662441092691119547478483138
99,1.45980226606802915110164785872771
100,1.46182731912403254039041963011533
101,1.46383219407090455262540607975575
102,1.46581728924104878009239751200602
103,1.46778299128300647997844977336780
104,1.46972967561411423614449772160042
105,1.47165770685144565498071509794788
106,1.47356743922227424959011734666154
107,1.47545921695521658459049550358768
108,1.47733337465313551427038512697733
109,1.47919023764881475330061010319577
110,1.48103012234435359907788938109508
111,1.48285333653516476357846438457148
112,1.48466017971940883896623789859184
113,1.48645094339364338540583929916036
114,1.48822591133541587177469034092442
115,1.48998535987348925146556622497556
116,1.49172955814634062382294395726434
117,1.49345876834954171874964755108935
118,1.49517324597258891091474508790471
119,1.49687324002571675627733526680603
120,1.49855899325720320140590249810505
121,1.50023074236163634882868008616204
122,1.50188871817959374851766642781490
123,1.50353314588915299267695822619149
124,1.50516424518963471119739213831443
125,1.50678223047794949887638420249996
126,1.50838731101790510820428966127387
127,1.50997969110280966363221542832037
128,1.51155957021168406604633290484293
129,1.51312714315938468293561334886390
130,1.51468260024091903787265995227495
131,1.51622612737022180880923267667503
132,1.51775790621364346748723150294611
133,1.51927811431839211068202674018706
134,1.52078692523615775803605711199775
135,1.52228450864213028289821536419168
136,1.52377103044961845505416479638555
137,1.52524665292046426628908434692661
138,1.52671153477143309773382172315854
139,1.52816583127675818203975018824033
140,1.52960969436700236745939606150407
141,1.53104327272439563341994534045736
142,1.53246671187479873390961326971787
143,1.53388015427643469482765330091583
144,1.53528373940552271181167258390991
145,1.53667760383894480729698655130888
146,1.53806188133406773681166212681852
147,1.53943670290583443154498889616218
148,1.54080219690124030619377232804363
149,1.54215848907129623301650469429633
150,1.54350570264058182294836002000527
151,1.54484395837448492800608548585966
152,1.54617337464421766412730284896216
153,1.54749406748969790411200178236644
154,1.54880615068038013988207130034681
155,1.55010973577411395002485037647041
156,1.55140493217410793895668607130984
157,1.55269184718407019428244647481274
158,1.55397058606159708042440358739496
159,1.5552412520698740413259627770070
160,1.5565039465277547497399559790573
161,1.5577587688582770991924887959133
162,1.5590058166356754996937201531609
163,1.5602451856309443304649213932302
164,1.5614769698560071862467669708411
165,1.5627012616065405173764785225647
166,1.5639181515035021791926035118282
167,1.5651277285334121230567850002375
168,1.5663300800874279178760247715901
169,1.5675252919992601641860126698182
170,1.5687134485819675438811193370443
171,1.5698946326636717000218255568835
172,1.5710689256222298133473879186181
173,1.5722364074189002777944230532130
174,1.5733971566310373185052751524219
175,1.5745512504838485372290279536804
176,1.5756987648812450914378584708700
177,1.5768397744358177676659931297036
178,1.5779743524979681034372749751811
179,1.5791025711842210026969212642255
180,1.5802245014047497911161420172685
181,1.5813402128901363598254598392398
182,1.5824497742173940929317994280567
183,1.5835532528352766280629039514783
184,1.5846507150888966914447081825218
185,1.5857422262436768156044107723785
186,1.5868278505086529082881112614856
187,1.5879076510591544730595915347303
188,1.5889816900588769178639132448594
189,1.5900500286813696826125387773552
190,1.5911127271309558368335659898997
191,1.5921698446631023699044731081197
192,1.5932214396042575560351961882698
193,1.5942675693711736978137312552198
194,1.5953082904897285890605348803961
195,1.5963436586132636293135021966165
196,1.5973737285404522818059167549788
197,1.5983985542327132502203793636168
198,1.5994181888311825361595532631187
199,1.6004326846732572111489232894481
200,1.6014420933087248433322941337655
201,1.6024464655154895552385005677110
202,1.6034458513149080887303502997505
203,1.6044402999867465318175429522200
204,1.6054298600837693221947426759261
205,1.6064145794459704928165409212993
206,1.6073945052144601782058884714115
207,1.6083696838450122521211450002596
208,1.6093401611212873179861186814810
209,1.6103059821677367949102680371398
210,1.6112671914621995948978382668915
211,1.6122238328481987502019487872709
212,1.6131759495469482179454392181202
213,1.6141235841690742398959997498704
214,1.6150667787260662330788288798542
215,1.6160055746414564174510967331550
216,1.6169400127617421350883797575522
217,1.6178701333670548199181202056743
218,1.6187959761815845904426185623531
219,1.6197175803837637383800359175971
220,1.6206349846162216213436684222928
221,1.6215482269955088618415704252538
222,1.6224573451216080499542754152061
223,1.6233623760872245105138776712513
224,1.6242633564868721940746492328572
225,1.6251603224257572482096150687747
226,1.6260533095284628070657196319377
227,1.6269423529474436420157609823774
228,1.6278274873713324835980376812293
229,1.6287087470330651668786749939408
230,1.6295861657178292864645121723982
231,1.6304597767708381504206213915876
232,1.6313296131049404419965575252970
233,1.6321957072080605746491037647264
234,1.6330580911504858864105042997321
235,1.6339167965919938446851565792540
236,1.6347718547888289602258278714909
237,1.6356232966005330303988720945685
238,1.6364711524966304427316918564685
239,1.6373154525631739743041694677524
240,1.6381562265091532403822470875326
241,1.6389935036727700736230240445511
242,1.6398273130275836897818872925715
243,1.6406576831885296706745490716444
244,1.6414846424178144526097598162454
245,1.6423082186306896933825640013073
246,1.6431284394011090363746289154674
247,1.6439453319672686535257793300973
248,1.6447589232370391477093996977203
249,1.6455692397932837830055082208427
250,1.6463763078990734269703427314446
251,1.6471801535027961043075195429689
252,1.6479808022431639598337613305077
253,1.6487782794541227023353313946502
254,1.6495726101696631855652206872106
255,1.6503638191285390058034410567431
256,1.6511519307788902007401530216257
257,1.6519369692827794404188520024690
258,1.6527189585206371542912176850590
259,1.6534979220956223972269724875129
260,1.6542738833378998401759358934752
261,1.6550468653088331985321857987396
262,1.6558168908050998229251647331613
263,1.6565839823627253023171770445605
264,1.6573481622610435295579140732967
265,1.6581094525265807539209693917383
266,1.6588678749368657876521709048363
267,1.6596234510241695790590413620448
268,1.6603762020791741851377209077307
269,1.6611261491545754129337310754792
270,1.6618733130686148530579381840953
271,1.6626177144085505885912036271935
272,1.6633593735340605582187915486824
273,1.6640983105805860159856743721190
274,1.6648345454626122959670328711178
275,1.6655680978768907567098613581634
276,1.6662989873056001830744508505403
277,1.6670272330194551287660453239610
278,1.6677528540807529534804740398577
279,1.6684758693463710571084930286181
280,1.6691962974707064038446164119471
281,1.6699141569085652250036051234849
282,1.6706294659180003967928245614509
283,1.6713422425630997054668074396505
284,1.6720525047167221563791676649073
285,1.6727602700631891341722142161086
286,1.6734655561009264388295613464587
287,1.6741683801450622568626438632350
288,1.6748687593299774693869730610184
289,1.6755667106118129451321710478283
290,1.6762622507709345508927474040475
291,1.6769553964143537203398554950624
292,1.6776461639781064660800977761431
293,1.6783345697295947407158838273263
294,1.6790206297698851838013207448134
295,1.6797043600359673418185305152427
296,1.6803857763029789467138221702904
297,1.6810648941863881846980080113986
298,1.6817417291441422720419793816351
299,1.6824162964787791407022956675636
300,1.6830886113395039843592801851889
301,1.6837586887242310762826129968443
302,1.6844265434815929519337951065533
303,1.6850921903129141294112544444426
304,1.6857556437741529452441891396835
305,1.6864169182778129340382869801283
306,1.6870760280948230151699385157543
307,1.6877329873563836684788300542555
308,1.6883878100557865773842719441620
309,1.6890405100502038286871570071146
310,1.6896911010624470042006215565223
311,1.6903395966826997591088955758925
312,1.6909860103702214001832620594845
313,1.6916303554550228566005695173668
314,1.6922726451395168476346319890481
315,1.6929128925001415668598372395892
316,1.6935511104889592585057812830301
317,1.6941873119352272245643337543437
318,1.6948215095469466138908261509326
319,1.6954537159123861348577495877968
320,1.6960839435015806928158331849548
321,1.6967122046678088712935619965368
322,1.6973385116490453713622364238259
323,1.6979628765693919232027060000197
324,1.6985853114404856470095462432604
325,1.6992058281628866252104512622876
326,1.6998244385274429232236426147599
327,1.7004411542166358795053290470683
328,1.7010559868059028540784360126992
329,1.7016689477649424103971989310745
330,1.7022800484589983622104435651511
331,1.7028893001501241239958430410712
332,1.7034967139984284261855180507725
333,1.7041023010633027737169287046912
334,1.7047060723046288319107690291600
335,1.7053080385839700545868057261267
336,1.7059082106657436124475886216317
337,1.7065065992183754939541639769504
338,1.7071032148154398375240061270232
339,1.7076980679367785595363465803659
340,1.7082911689696073694632462179199
341,1.7088825282096038856821030038835
342,1.7094721558619803490970701180680
343,1.7100600620425405723365807926097
344,1.7106462567787211182120400269964
345,1.7112307500106185267496973665540
346,1.7118135515920000655688290377123
347,1.7123946712913015689423139604774
348,1.7129741187926091772420124494852
349,1.7135519036966285216709962930379
350,1.7141280355216388966013874931754
351,1.7147025237044345070996121336042
352,1.7152753776012524739822625948862
353,1.7158466064886868807590946009793
354,1.7164162195645902769180178348825
355,1.7169842259489630028143823731729
356,1.7175506346848285459320832426433
357,1.7181154547390981675400426450348
358,1.7186786950034240437304741455410
359,1.7192403642950366659630564032211
360,1.7198004713575754390201453034267
361,1.7203590248619042212278173611872
362,1.7209160334069182885290052102162
363,1.7214715055203373180084386880252
364,1.7220254496594894148500408293468
365,1.7225778742120844190808443071042
366,1.7231287874969753697586170847447
367,1.7236781977649110186009425455695
368,1.7242261131992761817728336399779
369,1.7247725419168245623663740200923
370,1.7253174919683997567360991284870
371,1.7258609713396472979880669213640
372,1.7264029879517166930904758419305
373,1.7269435496619534203106139229855
374,1.7274826642645851954468574230013
375,1.7280203394913931984146033389898
376,1.7285565830123797163911921631209
377,1.7290914024364239927198055178123
378,1.7296248053119294489731553012345
379,1.7301567991274641199680270289313
380,1.7306873913123910584850497067141
381,1.7312165892374915851183805526850
382,1.7317444002155785014149961624941
383,1.7322708315021039409541657036084
384,1.7327958902957568220566598694499
385,1.7333195837390535233677353507702
386,1.7338419189189224409545582107129
387,1.7343629028672781762423816120824
388,1.7348825425615892915751529042872
389,1.7354008449254403080726118985442
390,1.7359178168290851348755513267390
391,1.7364334650899922467053494223215
392,1.7369477964733852180989195849619
393,1.7374608176927760877897969838394
394,1.7379725354104901343159091471473
395,1.7384829562381849197099531639828
396,1.7389920867373632521226497169383
397,1.7394999334198796972697819825399
398,1.7400065027484406468196790296181
399,1.7405118011370965094945698530899
400,1.7410158349517303248254421268156
401,1.7415186105105388484617704682014
402,1.7420201340845068542344467188839
403,1.7425204118978774736931060768051
404,1.7430194501286164661890339408441
405,1.7435172549088678849301850604031
406,1.7440138323254072480238935219771
407,1.7445091884200893312086797666805
408,1.7450033291902880854498761304073
409,1.7454962605893315404572348164238
410,1.7459879885269342085835225173858
411,1.7464785188696212491027632356057
412,1.7469678574411479754383279137471
413,1.7474560100229157843808799683242
414,1.7479429823543809311221885568328
415,1.7484287801334604340480184159945
416,1.7489134090169315389034838117651
417,1.7493968746208275907980962359547
418,1.7498791825208274772672589360514
419,1.7503603382526429208821736417898
420,1.7508403473123986033104698205641
421,1.7513192151570090729913796999540
422,1.7517969472045517180083562876757
423,1.7522735488346336402788752537298
424,1.7527490253887560447662123524807
425,1.7532233821706725230525836205013
426,1.7536966244467448380932875466650
427,1.7541687574462936947604780304238
428,1.7546397863619445098428433147382
429,1.7551097163499720938675460276391
430,1.7555785525306371068276570834356
431,1.7560462999885217914471980645500
432,1.7565129637728621334749821334962
433,1.7569785488978717868811786851990
434,1.7574430603430688618699844706289
435,1.7579065030535933993585926286275
436,1.7583688819405234328883795128785
437,1.7588302018811877993125896475170
438,1.7592904677194746802996228579245
439,1.7597496842661365559304790201128
440,1.7602078562990926415770240752901
441,1.7606649885637259678876860666811
442,1.7611210857731786674991443221537
443,1.7615761526086451161418073476300
444,1.7620301937196575474819870663219
445,1.7624832137243734723306565778849
446,1.7629352172098559265386923729200
447,1.7633862087323537167177218032579
448,1.7638361928175748819577921963704
449,1.7642851739609612120156244042370
450,1.7647331566279559743838578037039
451,1.7651801452542723533036429727851
452,1.7656261442461554420366902056806
453,1.7660711579806435314362690731874
454,1.7665151908058250837327795746006
455,1.7669582470410950153726716061547
456,1.7674003309774055858760634456201
457,1.7678414468775165883855343921120
458,1.7682815989762412377673633203998
459,1.7687207914806902701553667015692
460,1.7691590285705138962438520734954
461,1.7695963143981394580187313005514
462,1.7700326530890080019403692232073
463,1.7704680487418083723120609581074
464,1.7709025054287069857025329944843
465,1.7713360271955772551199413089720
466,1.7717686180622257945961214253426
467,1.7722002820226146846581680161951
468,1.7726310230450848142893113236076
469,1.7730608450725727760359202647687
470,1.7734897520228288387615912506988
471,1.7739177477886302651141392140504
472,1.7743448362379942712766528377111
473,1.7747710212143859798631436022073
474,1.7751963065369288699105680285058
475,1.7756206960006066466794378953465
476,1.7760441933764690450251912764695
477,1.7764668024118318992928782719990
478,1.7768885268304761556791484648032
479,1.7773093703328447164003490269265
480,1.7777293365962375102017650398659
481,1.7781484292750033400358239520570
482,1.7785666520007320766491328968708
483,1.7789840083824425780264166154781
484,1.7794005020067691543969099636700
485,1.7798161364381480556291879758130
486,1.7802309152189985657561515070248
487,1.7806448418699055533602147266714
488,1.7810579198897980742522569407830
489,1.7814701527561272544893626607399
490,1.7818815439250413167208963596965
491,1.7822920968315598840069503533394
492,1.7827018148897461491552257092039
493,1.7831107014928768844419392872469
494,1.7835187600136113856108276864400
495,1.7839259938041575424983308847850
496,1.7843324061964382805552829466932
497,1.7847380005022540586331016095944
498,1.7851427800134453681318534952355
499,1.7855467480020527306738112422103
500,1.785949907720476324612914176976
501,1.786352262401630986227797385624
502,1.786753815259104040584287836273
503,1.787154569487307429994828387636
504,1.787554528261631983710094817130
505,1.787953694738596676101559254835
506,1.788352072055998603212247000624
507,1.788749663333061525488405250249
508,1.789146471670582616432877724390
509,1.789542500151075647847693557411
510,1.789937751838916664677168988105
511,1.790332229780485380298705479180
512,1.790725937004306192226411574748
513,1.791118876521187433732875155499
514,1.791511051324359537619569834105
515,1.791902464389612486201669766406
516,1.792293118675430757663652493353
517,1.792683017123126843343665222983
518,1.793072162656975121152370720501
519,1.793460558184342866889816555970
520,1.793848206595821260283303161397
521,1.794235110765353180795346087042
522,1.794621273550362069222190498540
523,1.795006697791878292060925135502
