Eigenstate,Potential Energy
1,0.500000000045662880270385435221015395
2,0.64623093794917817266580221118580846
3,0.73633761058051341898007156081091850
4,0.79966527963788460565762500497854040
5,0.8480465784446148774009777498800736
6,0.8870660017584214822078322342253165
7,0.9197208310189074539104164750227875
8,0.9477838526037805931375807652299493
9,0.9723835655197703038574147471525020
10,0.9942802239157398064568348661782164
11,1.0140093979329326483653766677850034
12,1.0319621828761335837125939935091085
13,1.0484327088112762945462327283806095
14,1.0636476734216140827379253891298913
15,1.0777854578219102829915926514677424
16,1.090988931428886867547116727224823
17,1.103374285422731183521593797923142
18,1.115037283753297114252431006002036
19,1.126057786244083934453029339827151
20,1.136503086226173671476451560530812
21,1.146430416619928975195197434050756
22,1.155888861093733778324303961180569
23,1.164920832000518358317872814704945
24,1.173563227778181814189683564773935
25,1.181848349745518709364000323144515
26,1.189804635909807023473420083262793
27,1.197457253929384150910048904779628
28,1.204828584472686872122663001957346
29,1.211938618420203400274205213079350
30,1.218805285706298035252643407463575
31,1.225444729451930456003557603543961
32,1.231871535961392096746832878631911
33,1.238098928846534248018644966712518
34,1.244138933791416256970756683220273
35,1.250002519131107135408024690685000
36,1.255699716384895005317189065182436
37,1.261239724080074262996734116775691
38,1.266630997572061599665296197069460
39,1.271881327068743366841696431806166
40,1.276997905671135991195435494741045
41,1.281987388925690869808895002299015
42,1.286855947128582575259810308306785
43,1.291609311415832854995720850704070
44,1.296252814505028893952595132016324
45,1.300791426816824740361402321897847
46,1.305229788591278512084444953846722
47,1.309572238520601388485438541540069
48,1.313822839342308028584545738906633
49,1.317985400772095512349443915419242
50,1.32206350010165518831751635438073
51,1.32606050074115484826965315604101
52,1.32997956894778343537500700628843
53,1.33382368894930037367867808396453
54,1.33759567664397047534711076820711
55,1.34129819203478988957320374314345
56,1.34493375053583398691728807923762
57,1.34850473327135910774044591496147
58,1.35201339647349291709540494089771
59,1.35546188007159416116442444824095
60,1.35885221555533811263124781649749
61,1.36218633318401976486917887503750
62,1.36546606860626582971378140879203
63,1.36869316894710470456779785661759
64,1.37186929841303109466369901767873
65,1.37499604346016713633634938249229
66,1.37807491756577452810397325466859
67,1.38110736563910988502970773887867
68,1.38409476810385937102738607876859
69,1.38703844468107599304834256963020
70,1.38993965789861467282171928031610
71,1.39279961635046150808988336174029
72,1.39561947772705539290023467206473
73,1.39840035163564716011149597313909
74,1.40114330222792256071942624694367
75,1.40384935065048429350404330955269
76,1.40651947733233874174491134538115
77,1.40915462412223067533303298253304
78,1.41175569628750337842755399491979
79,1.41432356438511484281316800367873
80,1.41685906601450254146956997072133
81,1.41936300746113995538773768409144
82,1.42183616523886657611414625467198
83,1.42427928753838437271432783038993
84,1.42669309558868942013102779285573
85,1.42907828493764810973847431893949
86,1.43143552665741149750484937105314
87,1.43376546847990387437526563553014
88,1.43606873586719826575168410520025
89,1.43834593302120806478474943686386
90,1.44059764383678078746317155727653
91,1.44282443280195848543565033322953
92,1.44502684584888105496104115915362
93,1.44720541115854642532694554099868
94,1.44936063992239868133872034260080
95,1.45149302706349402045190127183920
96,1.45360305191979262300452713566898
97,1.45569117889194017189643081962399
98,1.45775785805772988376752199559635
99,1.45980352575528244153834600324021
100,1.46182860513683487775978823516124
101,1.46383350669490015406453755147743
102,1.46581862876243360729175540466528
103,1.46778435798853451924345450856678
104,1.46973106979110380232095225052197
105,1.47165912878778571953245978183137
106,1.47356888920643079311952514968335
107,1.47546069527623897409448669371146
108,1.47733488160066290542665524142183
109,1.47919177351308251808101032622715
110,1.48103168741619977898789664839318
111,1.48285493110603654882384264781309
112,1.48466180408136907385022111910925
113,1.48645259783937710026218314422487
114,1.48822759615823684174427114120307
115,1.48998707536734658242626471791287
116,1.49173130460582536578488215342925
117,1.49346054606989350703004705785808
118,1.49517505524970263540885183617280
119,1.49687508115614925914423828368179
120,1.49856086653818000349039086573150
121,1.50023264809105840514247317735641
122,1.50189065665604423310580419642545
123,1.50353511741190411319749202560187
124,1.50516625005865455354484935483770
125,1.50678426899390890218196882666441
126,1.50838938348218457054821371606388
127,1.50998179781750627880596176685343
128,1.51156171147961849170525225012857
129,1.51312931928410814048470913061780
130,1.51468481152672034443094073392522
131,1.51622837412213444160064076596620
132,1.51776018873745266100886772129711
133,1.51928043292064198700272526862923
134,1.52078928022415849058134983094455
135,1.52228690032396529408037664952775
136,1.52377345913415164810844133888411
137,1.52524911891734729168044534567840
138,1.52671403839111265450096687512010
139,1.52816837283048335444621312602632
140,1.52961227416683199732424781794235
141,1.53104589108320572850355017084604
142,1.53246936910628991273290610966365
143,1.53388285069513966830614185178976
144,1.53528647532681380208872128332484
145,1.53668037957904150416352925535609
146,1.53806469721004429210288179048864
147,1.53943955923562749190753007367066
148,1.54080509400365658462003855089721
149,1.54216142726602021954600550699764
150,1.54350868224818353493893656703579
151,1.54484697971642770038157781330244
152,1.54617643804286598001107342682034
153,1.54749717326832526625923827541486
154,1.54880929916317698332710992415399
155,1.55011292728619559636316642894325
156,1.55140816704152259268485881757602
157,1.55269512573380698162240962478922
158,1.55397390862159413106225657084084
159,1.5552446189690266134989965844866
160,1.5565073580959233991091584059127
161,1.5577622254262958919415482117616
162,1.5590093185353602702991192081238
163,1.5602487331951009845854202282068
164,1.5614805634184400491844993225956
165,1.5627049015020607285657962365871
166,1.5639218380679361331762719324750
167,1.5651314621036099574134165848863
168,1.5663338610012720485666148790070
169,1.5675291205956738687910508797932
170,1.5687173252009235932044366580952
171,1.5698985576462010385408285149979
172,1.5710728993104302889939251175747
173,1.5722404301559454215544635867143
174,1.5734012287611851743299770629828
175,1.5745553723524505427541169841043
176,1.5757029368347550100124151324765
177,1.5768439968218006721963380104571
178,1.5779786256651094125560184534074
179,1.5791068954823355697717401172236
180,1.5802288771847910466174884499067
181,1.5813446405042055075769592534317
182,1.5824542540187493607718398958078
183,1.5835577851783425734505453448254
184,1.5846553003292735625479060738211
185,1.5857468647381499684135653622180
186,1.5868325426152022803024027968250
187,1.5879123971369641140989939267928
188,1.5889864904683445785645544386116
189,1.5900548837841164611681592492537
190,1.5911176372898358845511828464979
191,1.5921748102422126561472076911719
192,1.5932264609689476931308360398284
193,1.5942726468880558265126842535827
194,1.5953134245266873251323975818455
195,1.5963488495394660718767676518905
196,1.5973789767263580839909347104896
197,1.5984038600500847527713785491683
198,1.5994235526530949645869392646636
199,1.6004381068741089370491438467905
200,1.6014475742642477104979900166017
201,1.6024520056027592711876322848280
202,1.6034514509123546822892687205855
203,1.6044459594741648773982767057055
204,1.6054355798423297314136997303000
205,1.6064203598582293741070406342114
206,1.6074003466643707650840742497501
207,1.6083755867179354007704060579934
208,1.6093461258040023748319740427654
209,1.6103120090484525348638867366491
210,1.6112732809305652309529722070132
211,1.6122299852953150150767078423307
212,1.6131821653653785184668039041897
213,1.6141298637528558848321319145883
214,1.6150731224707217351306451917757
215,1.6160119829440048701218308279956
216,1.6169464860207106651568113918149
217,1.6178766719824901162479566213406
218,1.6188025805550645098680566147143
219,1.6197242509184089894149718871213
220,1.6206417217167075264685636919807
221,1.6215550310680771991305114332921
222,1.6224642165740789748112989095550
223,1.6233693153290085582960331434483
224,1.6242703639289823643865968416247
225,1.6251673984808211716625254745588
226,1.6260604546107349953010739068797
227,1.6269495674728178218026790053725
228,1.6278347717573540158209590955068
229,1.6287161016989435512404249000965
230,1.6295935910844507527378949153017
231,1.6304672732607783370904140541461
232,1.6313371811424771631419751689765
233,1.6322033472191866759257005581774
234,1.6330658035629221909990511193029
235,1.6339245818352021900838116672508
236,1.6347797132940253267711890949504
237,1.6356312288007007624100646346630
238,1.6364791588265335631813750512116
239,1.6373235334593705939288604847044
240,1.6381643824100090621548249412152
241,1.6390017350184719935187433373103
242,1.6398356202601534947793832995261
243,1.6406660667518378349432180581615
244,1.6414931027575940328442613189948
245,1.6423167561945503242555712164067
246,1.6431370546385510270891461592749
247,1.6439540253296971864581805960255
248,1.6447676951777785801450697520705
249,1.6455780907675920529793281311265
250,1.6463852383641565642349172276128
251,1.6471891639178228474628615408259
252,1.6479898930692804806631360266491
253,1.6487874511544674384025057977806
254,1.6495818632093817821404301737463
255,1.6503731539747993681957474900750
256,1.6511613479008976581261050410486
257,1.6519464691517920222685831505879
258,1.6527285416099809805048271562879
259,1.6535075888807071831061208263986
260,1.6542836342962345173675491092672
261,1.6550567009200416530935774217859
262,1.6558268115509367516718236489400
263,1.6565939887270921886274594736809
264,1.6573582547300047398211502710500
265,1.6581196315883797558287859772009
266,1.6588781410819414915453027354509
267,1.6596338047451728035555668886336
268,1.6603866438709842482816780219130
269,1.6611366795143168501168802145664
270,1.6618839324956742629807819081139
271,1.6626284234045936085433577748249
272,1.6633701726030489699731773496509
273,1.6641092002287949836147988281386
274,1.6648455261986477369041023323727
275,1.6655791702117068473921473052613
276,1.6663101517525170005213321488292
277,1.6670384900941764294587054005340
278,1.6677642043013840909256125948255
279,1.6684873132334370394839909059003
280,1.6692078355471700931400526463056
281,1.6699257896998456790851168901762
282,1.6706411939519913558371407204128
283,1.6713540663701882242256244583928
284,1.6720644248298073837514730818515
285,1.6727722870177012415791809790348
286,1.6734776704348456989026190057528
287,1.6741805923989382739729863210424
288,1.6748810700469485635620996952230
289,1.6755791203376256909222125864917
290,1.6762747600539634727671787657413
291,1.6769680058056211462133818239017
292,1.6776588740313025405844818679616
293,1.6783473810010975998528257848039
294,1.6790335428187812926308107207561
295,1.6797173754240719968552274993096
296,1.6803988945948569447236241201428
297,1.6810781159493746596067115770913
298,1.6817550549483637016870798421178
299,1.6824297268971745251791164429096
300,1.6831021469478461977333159973619
301,1.6837723301011483934598987348279
302,1.6844402912085907525024016426034
303,1.6851060449743967802875541777507
304,1.6857696059574458639793424724207
305,1.6864309885731848346619816331941
306,1.6870902070955083384701680105051
307,1.6877472756586051986389143441605
308,1.6884022082587782469208379029933
309,1.6890550187562337136555772212152
310,1.6897057208768405116576096617700
311,1.6903543282138630088453766349230
312,1.6910008542296648027647496402823
313,1.6916453122573848897760479007222
314,1.6922877155025880331992654351322
315,1.6929280770448886500821408206293
316,1.6935664098395495922548717758454
317,1.6942027267190533602977352329190
318,1.6948370403946511016903439461789
319,1.6954693634578865347256909014955
320,1.6960997083820947994718788354765
321,1.6967280875238801547378187743561
322,1.6973545131245686354994456531326
323,1.6979789973116391848478791832868
324,1.6986015521001322376253370451710
325,1.6992221893940375177538872524968
326,1.6998409209876592865091748383317
327,1.7004577585669618625199939482925
328,1.7010727137108926027152388946875
329,1.7016857978926873191023661924105
330,1.7022970224811545630708539575999
331,1.7029063987419402158238069033331
332,1.7035139378387734461897738642170
333,1.7041196508346944143801165277995
334,1.7047235486932619057261399614847
335,1.7053256422797452093397287825493
336,1.7059259423622962997602698228611
337,1.7065244596131051938462511694886
338,1.7071212046095395417752605282597
339,1.7077161878352645166725078126489
340,1.7083094196813490942211797747224
341,1.7089009104473544358464470396740
342,1.7094906703424068726362470517454
343,1.7100787094862551278026541613392
344,1.7106650379103117714064284307379
345,1.7112496655586807266943500268363
346,1.7118326022891683028608523445890
347,1.7124138578742813196086946556067
348,1.7129934420022091352503082185196
349,1.7135713642777931232925132232113
350,1.7141476342234811398632868620376
351,1.7147222612802690696037110527033
352,1.7152952548086291324100940683103
353,1.7158666240894242354252369217763
354,1.7164363783248097847766566808769
355,1.7170045266391233223672574455506
356,1.7175710780797601975309736931537
357,1.7181360416180385126213376433684
358,1.7186994261500525865650200862856
359,1.7192612404975106815509234544067
360,1.7198214934085659308068236303559
361,1.7203801935586322123656206502979
362,1.7209373495511914504564730185253
363,1.7214929699185869401690363192608
364,1.7220470631228077194214644825134
365,1.7225996375562622246370468346505
366,1.7231507015425401078373935201575
367,1.7237002633371651072022400538342
368,1.7242483311283357598664898642102
369,1.7247949130376585895402837284349
370,1.7253400171208694821716352302312
371,1.7258836513685461030039003135231
372,1.7264258237068103115525968626650
373,1.7269665419980205412634188949944
374,1.7275058140414584523774026599344
375,1.7280436475740005496215030852799
376,1.7285800502707862209888289411879
377,1.7291150297458739868701116672917
378,1.7296485935528891269965927298351
379,1.7301807491856645250501242848751
380,1.7307115040788714877568018039218
381,1.7312408656086434139536407659280
382,1.7317688410931894318535841245561
383,1.7322954377934026792250891598894
384,1.7328206629134581902440238277954
385,1.7333445236014040103301653364200
386,1.7338670269497461976778345508615
387,1.7343881799960234608766402560585
388,1.7349079897233753694790540148353
389,1.7354264630611048122595495316099
390,1.7359436068852318923317618682353
391,1.7364594280190395761241228891080
392,1.7369739332336147046516971615725
393,1.7374871292483818406327867496207
394,1.7379990227316285326092680733168
395,1.7385096203010248530063923357320
396,1.7390189285241368610643259898128
397,1.7395269539189336206143965247362
398,1.7400337029542877809004517537093
399,1.7405391820504682863044592401536
400,1.7410433975796295150024876265423
401,1.7415463558662928955398866003950
402,1.7420480631878217466144079451229
403,1.7425485257748921608783327642525
404,1.7430477498119578259237584211116
405,1.7435457414377062479708007376404
406,1.7440425067455124873705529244958
407,1.7445380517838875227202455455072
408,1.7450323825569187468636261963143
409,1.7455255050247054559362356519146
410,1.7460174251037918460143176747966
411,1.7465081486675917774709669189608
412,1.7469976815468088897142966385999
413,1.7474860295298531454535930474018
414,1.7479731983632502284295712930409
415,1.7484591937520480786611745564374
416,1.7489440213602169949351567432786
417,1.7494276868110461531184649687435
418,1.7499101956875337036278894607050
419,1.7503915535327747266654720361860
420,1.7508717658503420272434914813272
421,1.7513508381046637222811176783735
422,1.7518287757213969014842360334599
423,1.7523055840877951982506651981948
424,1.7527812685530738844353278212981
425,1.7532558344287688684439296626413
426,1.7537292869890932036079208428175
427,1.7542016314712885915845886023654
428,1.7546728730759718945842249768571
429,1.7551430169674805689308579051583
430,1.7556120682742098821816409208809
431,1.7560800320889494175804519167844
432,1.7565469134692160154837770220673
433,1.7570127174375784897825575063804
434,1.7574774489819852173836987478287
435,1.7579411130560824245570878385116
436,1.7584037145795310712699846231370
437,1.7588652584383204950131510371668
438,1.7593257494850777963206177862657
439,1.7597851925393736474260289526288
440,1.7602435923880255954111971783797
441,1.7607009537853960198432719206172
442,1.7611572814536883086958018607281
443,1.7616125800832409003953747872693
444,1.7620668543328138115187877562024
445,1.7625201088298769809548408295598
446,1.7629723481708914550346245602816
447,1.7634235769215905829619201973506
448,1.7638737996172544409080186524198
449,1.7643230207629853254390407778733
450,1.7647712448339764688897175338245
451,1.7652184762757814799473940050149
452,1.7656647195045773509721323199729
453,1.7661099789074267753006690932728
454,1.7665542588425361636675690842947
455,1.7669975636395129838005734516929
456,1.7674398975996177203771780059097
457,1.7678812649960151512431746992696
458,1.7683216700740213359845156620619
459,1.7687611170513488309789784681298
460,1.7691996101183497734723616040087
461,1.7696371534382546846132913458867
462,1.7700737511474102047075276908829
463,1.7705094073555143646801024527335
464,1.7709441261458475548689822183593
465,1.7713779115755031601125668587295
466,1.7718107676756149920550938057541
467,1.7722426984515807994199091660754
468,1.7726737078832868721298010076689
469,1.7731037999253262162142769906665
470,1.7735329785072178242901980596353
471,1.7739612475336213089764701758203
472,1.7743886108845511971129962042828
473,1.7748150724155862359462401691227
474,1.7752406359580812155448523874644
475,1.7756653053193702304734924367370
476,1.7760890842829738948068457458206
477,1.7765119766088008437659716490943
478,1.7769339860333481982548278471689
479,1.7773551162698998819750590340463
480,1.7777753710087231860017843943937
481,1.7781947539172621320022477855394
482,1.7786132686403312031973633873683
483,1.7790309188003048233801802123552
484,1.7794477079973054040731702422521
485,1.7798636398093914370312567687884
486,1.7802787177927402172205277086200
487,1.7806929454818320454013209957894
488,1.7811063263896305071511195376338
489,1.7815188640077620567868936655562
490,1.7819305618066927695948920830676
491,1.7823414232359043969425047226143
492,1.7827514517240683127536625262402
493,1.7831606506792173266599956601193
494,1.7835690234889164581766052606886
495,1.7839765735204308647124943653936
496,1.7843833041208941681607682540599
497,1.7847892186174728659189409891295
498,1.7851943203175307719264591539216
499,1.7855986125087909853864451977658
500,1.786002098459497517993746312860
501,1.786404781418572326039449262176
502,1.786806664615775202908977446543
503,1.787207751261858000447588382542
504,1.787608044548721023379494467711
505,1.788007547649564444608333686090
506,1.788406263719040471852524970189
507,1.788804195893404114016931115474
508,1.789201347290662187644022769551
509,1.789597721010718794725322007661
510,1.789993320135523325510049551505
511,1.790388147729214217800361389476
512,1.790782206838262373346166565882
513,1.791175500491612847517123512115
514,1.791568031700825489156548578027
515,1.791959803460214905381542373414
516,1.792350818746987962193547660307
517,1.792741080521379896179715630365
518,1.793130591726790823252652281208
519,1.793519355289919426942969748862
520,1.793907374120896683843810352856
521,1.794294651113416422037464429509
522,1.794681189144866989334223991034
523,1.795066991076460469118064999461
