Eigenstate,Potential Energy
1,0.500000000113300656276290662183029707
2,0.64623093839068473332695119070006911
3,0.73633761187741429584697971998749736
4,0.79966528233921237994602921434620382
5,0.8480465831239365340513485034197575
6,0.8870660089993859565059167733360623
7,0.9197208414099269107599851202290657
8,0.9477838667358181542545979010404994
9,0.9723835839853167178981150756575272
10,0.9942802473082990218671130850731717
11,1.0140094268467469611602698614554461
12,1.0319622179060308757389186580896515
13,1.0484327505525837450364445561952814
14,1.0636477224701101421974730663771509
15,1.0777855147737997369707504867050280
16,1.090988996880790411386085217589657
17,1.103374359971684443445983159948997
18,1.115037367996756010669081627368216
19,1.126057880779934421434662823798543
20,1.136503191652744570758861184604594
21,1.146430533536007047481101723288155
22,1.155888990098580445374449683805894
23,1.164920973693887666272278445777778
24,1.173563382760339346872166547345625
25,1.181848518617261241041406596363576
26,1.189804819272482756636508827525506
27,1.197457452384913424288746227041529
28,1.204828798623583252603737693376446
29,1.211938848869595093104689774997059
30,1.218805533057949562191491247219234
31,1.225444994310264562491005513634203
32,1.231871818931511857773233305853204
33,1.238099230534245348945314477519717
34,1.244139254803249430617773225654713
35,1.250002860074340740659999807695693
36,1.255700077867577735584825330813806
37,1.261240106711047975312450519120139
38,1.266631401960984257135363132649741
39,1.271881753826112088737462474441330
40,1.276998355408310206226866063852881
41,1.281987862254915569148849908236991
42,1.286856444663011662726715753115181
43,1.291609833769552592493324013587559
44,1.296253362293081440837729912974835
45,1.300792000655231785887588115725522
46,1.305230389097065000468495184751390
47,1.309572866311819336480512605448708
48,1.313823495038060435728024131741105
49,1.317986084992560364296374333967816
50,1.32206421346810955387782603648531
51,1.32606124387599907094592798910824
52,1.32998034247456542035198735782389
53,1.33382449349273997134983647140052
54,1.33759651282998396258118564160331
55,1.34129906049051455002671451767038
56,1.34493465188965279179038162949819
57,1.34850566815292549845449135229269
58,1.35201436551375569144362157041061
59,1.35546288390282246455188275299065
60,1.35885325481114653607992483387287
61,1.36218740849939355151758758208031
62,1.36546718061758619159016103896576
63,1.36869431829217425146130897108361
64,1.37187048573109937696026530657503
65,1.37499726939195630372549818174698
66,1.37807618275350510609979991545357
67,1.38110867072652667128417133002669
68,1.38409611373625745344736930372116
69,1.38703983150532689175978671166790
70,1.38994108656319260805424056001300
71,1.39280108750546979608515156729820
72,1.39562099202425297197538446730227
73,1.39840190972847524903698942230746
74,1.40114490477153145159757170911839
75,1.40385099830176028136121631638754
76,1.40652117074993119307641037806534
77,1.40915636396657923786555081920919
78,1.41175748322086533438980448855307
79,1.41432539907159260803065991346912
80,1.41686094912007131262460302312702
81,1.41936493965367550781126649924598
82,1.42183814718817321450118239066641
83,1.42428131991622303717986104418741
84,1.42669517906880595004878372541509
85,1.42908042019580166783030444033147
86,1.43143771437140315667404887192646
87,1.43376770932960536980313348359211
88,1.43607103053458091480230569712135
89,1.43834828219037185728934065128993
90,1.44060004819398364898165077919361
91,1.44282689303564571612014319560112
92,1.44502936264971494667246898520416
93,1.44720798521943605968374298213454
94,1.44936327193852991140401807571508
95,1.45149571773235963879358924504967
96,1.45360580194122271889093702375684
97,1.45569398896813268041925412668810
98,1.45776072889328132971235996732697
99,1.45980645805721888085319043609129
100,1.46183159961464303950138872287692
101,1.46383656406055878573305679209467
102,1.46582174973044502649488719476445
103,1.46778754327595637466232170703848
104,1.46973432011758104698218977749057
105,1.47166244487558279942258128850734
106,1.47357227178046405421065628599783
107,1.47546414506410929088353665310079
108,1.47733839933268853412381819305774
109,1.47919535992233217761762181197609
110,1.48103534323852596304835019328450
111,1.48285865708010907214150205123260
112,1.48466560094870885604324461922548
113,1.48645646634439019052130956910027
114,1.48823153704824868772173070299712
115,1.48999108939263654671242303869735
116,1.49173539251966149339741117862588
117,1.49346470862856754737891947519823
118,1.49517929321256532224012429685361
119,1.49687939528564585200519601346384
120,1.49856525759988609429949853983678
121,1.50023711685371599348860391211954
122,1.50189520389159807394320181828509
123,1.50353974389553834064560184567545
124,1.50517095656882958454501440396480
125,1.50678905631239862380738286917134
126,1.50839425239411381480792218365035
127,1.50998674911138858882901576232063
128,1.51156674594739418323730590164106
129,1.51313443772118266267617901862698
130,1.51469001473200294394324757316534
131,1.51623366289807713410560793649276
132,1.51776556389008951420557185881485
133,1.51928589525962871932535974292504
134,1.52079483056281238982318370669448
135,1.52229253947930546021003920832072
136,1.52377918792693956460692422576695
137,1.52525493817212772978083647450785
138,1.52671994893625491476680176155649
139,1.52817437549822285017917129239292
140,1.52961836979331218434804737631434
141,1.53105208050852038592716180859014
142,1.53247565317452577935431949251650
143,1.53388923025441943937635056942117
144,1.53529295122933949121504468326489
145,1.53668695268113817519198588789521
146,1.53807136837220416588079442099408
147,1.53944632932255443289008605943118
148,1.54081196388431097234794891117085
149,1.54216839781366421008612142447713
150,1.54351575434042671744484938445840
151,1.54485415423527315399872860211986
152,1.54618371587475673641764843727153
153,1.54750455530419118320383918230714
154,1.54881678629848203459360483857999
155,1.55012052042098558366461315894835
156,1.55141586708047328506074553825323
157,1.55270293358627268798643888004626
158,1.55398182520165671162338256476166
159,1.5552526451955449358536619372794
160,1.5565154948925832448802735189351
161,1.5577704737216603199181042783366
162,1.5590176792629204421102685660509
163,1.5602572072933274590232463937172
164,1.5614891518308345513732031587803
165,1.5627136051772084002578393542599
166,1.5639306579595582705419773526643
167,1.5651403991706172427760270449351
168,1.5663429162078182826243225394065
169,1.5675382949112102099556696229061
170,1.5687266196002533107782339930807
171,1.5699079731095347865452977621493
172,1.5710824368234419075578421936695
173,1.5722500907098282728648554019347
174,1.5734110133527090202469788286043
175,1.5745652819840189712887810426022
176,1.5757129725144634179677045463745
177,1.5768541595634948113736317834384
178,1.5779889164884445070330086633835
179,1.5791173154128360118639586639227
180,1.5802394272539106792429274080577
181,1.5813553217493885008522691627779
182,1.5824650674834916907798025884349
183,1.5835687319122541112323476285819
184,1.5846663813881407814873368195814
185,1.5857580811839992782991304861977
186,1.5868438955163639964696934259988
187,1.5879238875681370701792234826061
188,1.5889981195106613914865450499220
189,1.5900666525252094571868145481570
190,1.5911295468239036952025821489208
191,1.5921868616700874931603036755328
192,1.5932386553981633114570446100413
193,1.5942849854329161847690429790136
194,1.5953259083083359528896538408384
195,1.5963614796859561533634946553153
196,1.5973917543727232679245718591122
197,1.5984167863384106981719077480813
198,1.5994366287325916325737811908231
199,1.6004513339011836387716600923907
200,1.6014609534025789215001833247045
201,1.6024655380233712226615543305454
202,1.6034651377936927398291035978627
203,1.6044598020021717180253596527792
204,1.6054495792105223298053572320291
205,1.6064345172677768091265613903233
206,1.6074146633241728578778057533997
207,1.6083900638447021958686134208431
208,1.6093607646223344758626980475020
209,1.6103268107909223066686106207442
210,1.6112882468377988800704505959264
211,1.6122451166160755607458329671104
212,1.6131974633566496664860725589702
213,1.6141453296799268168034241503165
214,1.6150887576072728258073806511511
215,1.6160277885721943457793721205426
216,1.6169624634312622161035598348423
217,1.6178928224747814767986318233393
218,1.6188189054372170193088848949190
219,1.6197407515073781477025301576235
220,1.6206583993383745586185782709528
221,1.6215718870573416424721992960057
222,1.6224812522749523035068992662429
223,1.6233865320947088597516634776165
224,1.6242877631220300824121546370391
225,1.6251849814731359314747475744118
226,1.6260782227837335257036527787832
227,1.6269675222175129901208354398063
228,1.6278529144744549914190327194636
229,1.6287344337989571137027881107308
230,1.6296121139877837610523380315354
231,1.6304859883978413764371907640140
232,1.6313560899537893861587600952375
233,1.6322224511554818555920246649582
234,1.6330851040852560025624159516389
235,1.6339440804150607397327026271050
236,1.6347994114134349450481862277629
237,1.6356511279523390806545223979568
238,1.6364992605138418915886223304956
239,1.6373438391966676201193727530602
240,1.6381848937226058894584790270487
241,1.6390224534427885384952672314574
242,1.6398565473438362638192866283097
243,1.6406872040538791001244895046695
244,1.6415144518484524275538499350359
245,1.6423383186562728794267691028316
246,1.6431588320648966692572027166634
247,1.6439760193262617191879144903625
248,1.6447899073621211707499784734423
249,1.6456005227693632468180768356323
250,1.6464078918252278492503984435124
251,1.6472120404924177920104234762585
252,1.6480129944241074680660368061457
253,1.6488107789688540220731155657421
254,1.6496054191754106855107370882693
255,1.6503969397974461541157137650569
256,1.6511853652981700928120275326276
257,1.6519707198548711593135772939415
258,1.6527530273633639909041580460653
259,1.6535323114423519576981733009562
260,1.6543085954377060685483033470584
261,1.6550819024266603431288278065313
262,1.6558522552219283754080523921266
263,1.6566196763757399388860084671031
264,1.6573841881838030842566233023924
265,1.6581458126891902545366944121503
266,1.6589045716861505852193543373877
267,1.6596604867238516025206979507295
268,1.6604135791100503532644402931294
269,1.6611638699146982361631921014160
270,1.6619113799734752584873291825570
271,1.6626561298912630019403283326704
272,1.6633981400455502771759805376879
273,1.6641374305897789099562923793472
274,1.6648740214566268678638990604179
275,1.6656079323612326030573841276243
276,1.6663391828043588893437726530714
277,1.6670677920755036375176857323823
278,1.6677937792559494435618967763134
279,1.6685171632217633728410063063999
280,1.6692379626467390738344920806821
281,1.6699561960052891109263531769149
282,1.6706718815752850132302749358829
283,1.6713850374408482526200657733346
284,1.6720956814950893082431324676123
285,1.6728038314428016255326461316915
286,1.6735095048031064952352576099269
287,1.6742127189120539125380391989762
288,1.6749134909251758188743991455543
289,1.6756118378199963752978396799185
290,1.6763077763985000007930288170203
291,1.6770013232895550173255338103209
292,1.6776924949512957874145624373528
293,1.6783813076734672509017249817811
294,1.6790677775797268987498797426131
295,1.6797519206299062719535889372631
296,1.6804337526222395720806279650150
297,1.6811132891955493161508183265216
298,1.6817905458313983536024545777490
299,1.6824655378562050492288520610880
300,1.6831382804433233837332481104655
301,1.6838087886150883844084480686768
302,1.6844770772448289799651171364144
303,1.6851431610588454537526251680707
304,1.6858070546383550740464132561297
305,1.6864687724214073310916096933351
306,1.6871283287047680453187988107454
307,1.6877857376457695299250191492651
308,1.6884410132641342875156331484314
309,1.6890941694437683313726742027459
310,1.6897452199345244678182993626336
311,1.6903941783539391359349815242952
312,1.6910410581889403191607481876797
313,1.6916858727975279229260695091083
314,1.6923286354104284240574649155044
315,1.6929693591327231130743916758246
316,1.6936080569454513065383288794205
317,1.6942447417071860696137415453974
318,1.6948794261555878016738746801812
319,1.6955121229089328281367732541651
320,1.6961428444676170014542252199750
321,1.6967716032156382318905764164627
322,1.6973984114220540642614990362481
323,1.6980232812424178164563157252062
324,1.6986462247201922587058055976973
325,1.6992672537881425974437280968795
326,1.6998863802697070029004226073869
327,1.7005036158803475031379502416790
328,1.7011189722288784357266720373051
329,1.7017324608187774339722425719004
330,1.7023440930494753814539287056720
331,1.7029538802176267756061945396517
332,1.7035618335183615637638860651640
333,1.7041679640465188324665052132242
334,1.7047722827978605363333772268867
335,1.7053748006702695837911968888405
336,1.7059755284649283401072563599054
337,1.7065744768874804224427978598871
338,1.7071716565491768482975115767797
339,1.7077670779680026044438352915788
340,1.7083607515697897303365737788634
341,1.7089526876893126322979785311329
342,1.7095428965713681284114564049149
343,1.7101313883718398647634208859125
344,1.7107181731587470996717588657793
345,1.7113032609132796782328359844833
346,1.7118866615308166750570048109251
347,1.7124683848219322737047720278604
348,1.7130484405133856977860838700930
349,1.7136268382490987419552488010537
350,1.7142035875911184485529606119459
351,1.7147786980205670209800943634721
352,1.7153521789385786597525430740794
353,1.7159240396672226092834388863477
354,1.7164942894504138336381867011360
355,1.7170629374548116904070128998755
356,1.7176299927707048164558956532765
357,1.7181954644128854686635014188087
358,1.7187593613215125678304118437340
359,1.7193216923629591951960598500374
360,1.7198824663306534838809674810593
361,1.7204416919459046546551727386812
362,1.7209993778587206822707545077921
363,1.7215555326486121927421193958735
364,1.7221101648253876204600247187973
365,1.7226632828299378665397720912542
366,1.7232148950350093412269298465072
367,1.7237650097459682876796828845731
368,1.7243136352015531813007465713665
369,1.7248607795746198427586137157435
370,1.7254064509728749836178462407739
371,1.7259506574396010437992393519789
372,1.7264934069543712834058402996336
373,1.7270347074337551018757837538459
374,1.7275745667320178993387024686982
375,1.7281129926418061783355236183138
376,1.7286499928948293488846472841955
377,1.7291855751625300330629508845680
378,1.7297197470567460436628615791995
379,1.7302525161303658840845927199220
380,1.7307838898779745337878188824706
381,1.7313138757364924025141120715684
382,1.7318424810858045794508543277083
383,1.7323697132493850602179058659994
384,1.7328955794949109238443088053393
385,1.7334200870348700896918374644163
386,1.7339432430271633219343816992554
387,1.7344650545756962401399007616289
388,1.7349855287309652822438755838532
389,1.7355046724906383043504902657493
390,1.7360224928001270165111872598060
391,1.7365389965531515817686617244518
392,1.7370541905923009974728461561071
393,1.7375680817095867433291514709188
394,1.7380806766469882885496947848923
395,1.7385919820969933266061221675638
396,1.7391020047031324004219784557481
397,1.7396107510605075602410503316046
398,1.7401182277163150750129325268425
399,1.7406244411703607761697941931000
400,1.7411293978755723472467834695041
401,1.7416331042385046221597874717943
402,1.7421355666198386516867421186075
403,1.7426367913348773736604558027201
404,1.7431367846540357951881658751119
405,1.7436355528033231680440979174082
406,1.7441331019648232824577554440644
407,1.7446294382771700127136555865807
408,1.7451245678360156349805778445811
409,1.7456184966944947962127366146026
410,1.7461112308636866669325541575949
411,1.7466027763130695568236163660156
412,1.7470931389709715952455019346314
413,1.7475823247250185758737869085582
414,1.7480703394225754101067499480283
415,1.7485571888711854946745010460622
416,1.7490428788390044452463418356870
417,1.7495274150552310674130534502720
418,1.7500108032105327519347140010146
419,1.7504930489574695971762785987962
420,1.7509741579109122658851153263170
421,1.7514541356484575545706348763837
422,1.7519329877108409840122995978052
423,1.7524107196023442748911187721134
424,1.7528873367912013510408079851012
425,1.7533628447099992794292577119825
426,1.7538372487560777844725539709187
427,1.7543105542919248531246918454481
428,1.7547827666455684773270907102924
429,1.7552538911109684802373414859505
430,1.7557239329484013235542255049689
431,1.7561928973848454360227316074613
432,1.7566607896143642503336024875905
433,1.7571276147984823253375422617895
434,1.7575933780665656919059327692851
435,1.7580580845161942879404543112162
436,1.7585217392135344268286016471237
437,1.7589843471937095055636719309096
438,1.7594459134611679810748586405606
439,1.7599064429900493441920142942192
440,1.7603659407245492123459526204942
441,1.7608244115792807525532216358815
442,1.7612818604396360519108948322828
443,1.7617382921621471388496823327632
444,1.7621937115748413321108466762037
445,1.7626481234776003078524162817692
446,1.7631015326425139711789002097051
447,1.7635539438142363655520526807848
448,1.7640053617103369049859160314630
449,1.7644557910216548387351361598520
450,1.7649052364126491727861159071303
451,1.7653537025217516258188848787447
452,1.7658011939617155384553206982438
453,1.7662477153199665593024072806085
454,1.7666932711589515803007997176281
455,1.7671378660164896320673939086979
456,1.7675815044061201264411690100967
457,1.7680241908174532357117567633159
458,1.7684659297165189019024228850773
459,1.7689067255461170913805940782803
460,1.7693465827261690425446771392153
461,1.7697855056540674659621700675624
462,1.7702234987050290240663562430561
463,1.7706605662324478128950380302581
464,1.7710967125682481303275947591682
465,1.7715319420232406281773039252186
466,1.7719662588874791127689591498329
467,1.7723996674306174140060849362166
468,1.7728321719022714838870182148112
469,1.7732637765323793525661682804822
470,1.7736944855315666242973541445175
471,1.7741243030915119448632830681376
472,1.7745532333853169096000826678824
473,1.7749812805678759417849727909476
474,1.7754084487762538319683281823265
475,1.7758347421300600556682415808561
476,1.7762601647318325864166055028395
477,1.7766847206674217492265238809262
478,1.7771084140063790119269020144984
479,1.7775312488023498350288932824161
480,1.7779532290934712163004297810706
481,1.7783743589027727334063089316867
482,1.7787946422385849172461704307390
483,1.7792140830949506118762204122179
484,1.7796326854520424292239757635422
485,1.7800504532765880772441511957346
486,1.7804673905222984620111199165102
487,1.7808835011303057429650166739892
488,1.7812987890296062836867936896632
489,1.7817132581375120885220244498764
490,1.7821269123601089674845517674749
491,1.7825397555927239611574136242476
492,1.7829517917204010302767974096510
493,1.7833630246183854216913789134483
494,1.7837734581526182626175775403886
495,1.7841830961802400560247598446049
496,1.7845919425501068255913572600245
497,1.7850000011033151247496046702023
498,1.7854072756737404105072484412570
499,1.7858137700885868627385195483275
500,1.786219488168951392237346057924
501,1.786624433730398227705863511370
502,1.787028610583552213914503381524
503,1.787432022534703001216739132985
504,1.787834673386428719379533275315
505,1.788236566938232771436781764090
506,1.788637706987200307542260145205
507,1.789038097328673100743701981526
508,1.789437741756943385211344593048
509,1.789836644065965858022405216007
510,1.790234808050094920489799999343
511,1.790632237504841468741688784801
512,1.791028936227654271691996083858
513,1.791424908018725753174288629529
514,1.791820156681824122718522985311
515,1.792214686025153568639330502156
516,1.792608499862242139043744066839
517,1.793001602012859881555755719086
518,1.793393996303970609216179255498
519,1.793785686570715748305539611973
520,1.794176676657434896575884635026
521,1.794566970418721762879083019920
522,1.794956571720521751434919286459
523,1.795345484441269733639917644387
