Eigenstate,Potential Energy
1,0.500000000039038152200781477324376908
2,0.64623093790593531794807434685998781
3,0.73633761045349064728186567702407553
4,0.79966527937330960540128832105264458
5,0.8480465779863144716918818353567242
6,0.8870660010492378989214378984395081
7,0.9197208300012200004363868330382712
8,0.9477838512197230734319726867479341
9,0.9723835637113319863131667008808270
10,0.9942802216248165486026912970422782
11,1.0140093951013545575218323860532187
12,1.0319621794456807205760806958615511
13,1.0484327047236878671470397612715358
14,1.0636476686185938939447841657181748
15,1.0777854522451299176958532283588358
16,1.090988925019987459865069800466887
17,1.103374278123324260152482635018774
18,1.115037275504964818115064660125890
19,1.126057776988378821251587280050414
20,1.136503075904618204820764607858391
21,1.146430405174014804327471892353673
22,1.155888848464920855992999739321770
23,1.164920818130233939007797606662576
24,1.173563212607819361330255646641104
25,1.181848333216436732232377698776753
26,1.189804617963327859015548714228287
27,1.197457234506792701820167539830431
28,1.204828563515229309735309113418312
29,1.211938595869085838794353995901310
30,1.218805261502685182353633916068670
31,1.225444703536944243705736189671951
32,1.231871508276110295646850367317471
33,1.238098899331989067296302211612732
34,1.244138902388592932105020687626638
35,1.250002485780942505148854794838312
36,1.255699681028276079158064489121755
37,1.261239686657836780154306531034888
38,1.266630958024988580382775792159794
39,1.271881285337563656680374069315751
40,1.276997861696522798855895043593511
41,1.281987342648260298923696963699885
42,1.286855898488892150517886678842976
43,1.291609260354380042891701025681921
44,1.296252760962249618398931354626637
45,1.300791370733091893355165051288030
46,1.305229729906900459582262248297841
47,1.309572177175820471607857786098349
48,1.313822775277299060243961976970808
49,1.317985333926964269372774739541553
50,1.32206343041643689911527990455003
51,1.32606042815581267608644381797344
52,1.32997949340220695714207564921557
53,1.33382361038330405447703995801864
54,1.33759559499729213847898110693709
55,1.34129810724708918223035238159651
56,1.34493366254669084142687803200952
57,1.34850464202027219836193858154729
58,1.35201330189987811233591826866485
59,1.35546178211478297157457159116633
60,1.35885211415457613403864764337494
61,1.36218622827846511700262794410947
62,1.36546596013498759016724035553044
63,1.36869305684908133804999733531488
64,1.37186918262714887747611945296606
65,1.37499592392521857601957749999569
66,1.37807479422045677818996258293050
67,1.38110723842202315483521632068443
68,1.38409463695350533042179797414369
69,1.38703830953585617212717437454867
70,1.38993951869682885641541693236662
71,1.39279947303030612503583409315018
72,1.39561933022662190000449971618601
73,1.39840019989292042072530096328771
74,1.40114314618077921785419753777483
75,1.40384919023669113740750237269151
76,1.40651931248955107185959107418501
77,1.40915445478799065655749033375129
78,1.41175552239923839159945693335638
79,1.41432338588013582933247290532140
80,1.41685888283000234197899929024553
81,1.41936281953419164242686584334600
82,1.42183597250642178066245338010964
83,1.42427908993727160453774917163727
84,1.42669289305561238184563943357484
85,1.42907807740918400450413201673152
86,1.43143531407000933026077432994959
87,1.43376525076988274652876047732134
88,1.43606851297074566323038009241329
89,1.43834570487437813936198773143287
90,1.44059741037549263126536617365260
91,1.44282419396199439853968044192222
92,1.44502660156588480598898811186937
93,1.44720516136802150494470957122646
94,1.44936038455970654856429349108705
95,1.45149276606385234167833353946798
96,1.45360278521827350364184446010458
97,1.45569090642346838053601177619479
98,1.45775757975708106877170580195725
99,1.45980324155708133995723611224742
100,1.46182831497555351647650153014464
101,1.46383321050485604306934859091728
102,1.46581832647778792498482150479563
103,1.46778404954329028966505514199537
104,1.46973075511910406420733016079663
105,1.47165880782271168709465686431082
106,1.47356856188180000844173264883049
107,1.47546036152540345104766086756868
108,1.47733454135680726499235716912968
109,1.47919142670922211497958325905741
110,1.48103133398517881950428528256076
111,1.48285457098052619972356462119752
112,1.48466143719386556227706989851024
113,1.48645222412219980450850414667001
114,1.48822721554352637278368993249923
115,1.48998668778706285609801402134815
116,1.49173090999174566551785446760105
117,1.49346014435361053699390277284423
118,1.49517464636262256397860216451965
119,1.49687466502948975256382007086846
120,1.49856044310296824961979965135482
121,1.50023221727812912717215244445390
122,1.50189021839603769312099846810801
123,1.50353467163526410547436652932235
124,1.50516579669562638745918548626519
125,1.50678380797453737461030763084589
126,1.50838891473631192764027813698298
127,1.50998132127477016700629032758176
128,1.51156122706944989790086459026478
129,1.51312882693572932115466838009064
130,1.51468431116914274367265695488098
131,1.51622786568415659790664941918604
132,1.51775967214765810266682755315241
133,1.51927990810739711599028439570250
134,1.52078874711561045482643677651993
135,1.52228635884803984795633730069722
136,1.52377290921855100103249756729925
137,1.52524856048954794468258573825455
138,1.52671347137836322462942580281889
139,1.52816779715980238687445635662589
140,1.52961168976500576502325084681435
141,1.53104529787678601934195971891400
142,1.53246876702159180386646125495670
143,1.53388223965823928771658017983742
144,1.53528585526354607713108237937854
145,1.53667975041499789697959416677669
146,1.53806405887057052175720506962917
147,1.53943891164582124310122045816861
148,1.54080443708836520283623229588255
149,1.54216076094983839247954213762114
150,1.54350800645545096006161263346124
151,1.54484629437122673849279528939850
152,1.54617574306901929462248983370707
153,1.54749646858939344866066138660863
154,1.54880858470245616317938690305612
155,1.55011220296671503766249584720504
156,1.55140743278604227494142769434611
157,1.55269438146481516609501044046076
158,1.55397315426130491188886077726954
159,1.5552438544393774535618946170335
160,1.5565065833185726504717605742884
161,1.5577614403226203006923829366129
162,1.5590085230264524656371233311290
163,1.5602479272017669519789352083931
164,1.5614797468611965874349729402462
165,1.5627040743011328906053454575990
166,1.5639210001432546504269103378002
167,1.5651306133748086475339855591116
168,1.5663330013876852064117475650178
169,1.5675282500163336404050190664428
170,1.5687164435745573326707287507514
171,1.5698976648912286475068888504669
172,1.5710719953449615386885552448282
173,1.5722395148977772571136961085853
174,1.5734003021277990012454166315347
175,1.5745544342610094952559222009380
176,1.5757019872021012011973643322842
177,1.5768430355644524257093653625963
178,1.5779776526992584756319676430775
179,1.5791059107238443074419613834053
180,1.5802278805491896168841620164691
181,1.5813436319066890173559491452744
182,1.5824532333741750024029456732893
183,1.5835567524012267415720494274180
184,1.5846542553337889511302655340076
185,1.5857458074381226477449992249197
186,1.5868314729241087537171164500465
187,1.5879113149679283542366699787742
188,1.5889853957341350429475424511794
189,1.5900537763971430868807856280786
190,1.5911165171621470618031321405141
191,1.5921736772854921805011007325039
192,1.5932253150945116961715461017117
193,1.5942714880068496847338591172760
194,1.5953122525492825468132898830515
195,1.5963476643760571617201168192175
196,1.5973777782867593852904289816662
197,1.5984026482437272668745862401268
198,1.5994223273890231474174322784910
199,1.6004368680609774724489482429201
200,1.6014463218103182601489891372800
201,1.6024507394158972008682249954974
202,1.6034501709000257642197219933960
203,1.6044446655434319684260907703864
204,1.6054342718998494267870549749379
205,1.6064190378102486365824851070829
206,1.6073990104167235291112977416870
207,1.6083742361760391514946418423703
208,1.6093447608728547016516227746811
209,1.6103106296326276592782471283249
210,1.6112718869342105084321476027784
211,1.6122285766221474106827740547838
212,1.6131807419186810559527244746248
213,1.6141284254354740689416045065043
214,1.6150716691850599468193998444115
215,1.6160105145920227344177419589189
216,1.6169450025039193913730754747990
217,1.6178751732019488102608387288001
218,1.6188010664113764581671786090577
219,1.6197227213117179146309329062243
220,1.6206401765466938140801226311261
221,1.6215534702339540950492952993637
222,1.6224626399745887535398326667687
223,1.6233677228624186613505338527508
224,1.6242687554930815086732055335830
225,1.6251657739729154274921530683632
226,1.6260588139276438337243571396882
227,1.6269479105108701309432403854187
228,1.6278330984123840858814892042425
229,1.6287144118662870278525506388173
230,1.6295918846589405583230819651637
231,1.6304655501367405598955853434145
232,1.6313354412137269136095785164396
233,1.6322015903790239100544580370548
234,1.6330640297041275003473542447468
235,1.6339227908500325580643427861279
236,1.6347779050742098508807867266745
237,1.6356294032374363420355026737897
238,1.6364773158104805526170850990507
239,1.6373216728806484202389677259158
240,1.6381625041581918075073541618942
241,1.6389998389825839416159111981988
242,1.6398337063286646410034716653703
243,1.6406641348126593598331094818132
244,1.6414911526980737385134628175996
245,1.6423147879014680333581859528370
246,1.6431350679981139439354659587945
247,1.6439520202275352198772197367054
248,1.6447656714989396276866768390129
249,1.6455760483965372460437940665801
250,1.6463831771847554737131867384472
251,1.6471870838133486494658917016315
252,1.6479877939224050819134848911258
253,1.6487853328472565608571492956031
254,1.6495797256232900064078227459616
255,1.6503709969906651353059195612412
256,1.6511591713989382292067916104235
257,1.6519442730115983956754014838788
258,1.6527263257105127659484740419512
259,1.6535053531002874323136400359562
260,1.6542813785125445108097318170965
261,1.6550544250101156423047925276301
262,1.6558245153911566566831444871528
263,1.6565916721931822500281835179501
264,1.6573559176970261249581246541109
265,1.6581172739307251186468980507841
266,1.6588757626733294855671173218874
267,1.6596314054586425474914313687886
268,1.6603842235788897437561821684515
269,1.6611342380883213509906592036651
270,1.6618814698067445957412703752157
271,1.6626259393229944432313351746609
272,1.6633676669983370411053291615121
273,1.6641066729698132605561959052143
274,1.6648429771535195431382804729031
275,1.6655765992478299281291799906078
276,1.6663075587365575380778978430868
277,1.6670358748920630058371402167164
278,1.6677615667783015970120778520577
279,1.6684846532538205302784662578988
280,1.6692051529746985884243903617938
281,1.6699230843974359089273941194348
282,1.6706384657817914503234343625415
283,1.6713513151935713468033813372005
284,1.6720616505073653075600329701087
285,1.6727694894092378681363139413198
286,1.6734748493993705185074842348982
287,1.6741777477946597671785044388825
288,1.6748782017312675430612143203710
289,1.6755762281671285831847658090292
290,1.6762718438844155387559023258665
291,1.6769650654919596404987660220185
292,1.6776559094276298081701999405401
293,1.6783443919606741100145073968460
294,1.6790305291940186090625587631292
295,1.6797143370665256834089325668334
296,1.6803958313552194060176914912220
297,1.6810750276774679157712814630046
298,1.6817519414931320965037110593557
299,1.6824265881066773668639194841875
300,1.6830989826692503316022271586641
301,1.6837691401807207057059271332554
302,1.6844370754916906043041766666243
303,1.6851028033054683714592911582579
304,1.6857663381800105253617937454737
305,1.6864276945298332484438925481961
306,1.6870868866278926856192184368318
307,1.6877439286074312326109555556493
308,1.6883988344637972928051418667851
309,1.6890516180562345919033361014339
310,1.6897022931096413855297388977810
311,1.6903508732163031547045170922388
312,1.6909973718375963023253012926710
313,1.6916418023056642434140396034980
314,1.6922841778250676934130128575043
315,1.6929245114744084741820325957118
316,1.6935628162079282133490945582673
317,1.6941991048570794756286497031225
318,1.6948333901320746773630634120144
319,1.6954656846234099258592412486897
320,1.6960960008033637847892397657355
321,1.6967243510274748845992442217363
322,1.6973507475359944923693669527452
323,1.6979752024553175551735458027679
324,1.6985977277993911940908213652418
325,1.6992183354711024108597724580007
326,1.6998370372636432444146816207998
327,1.7004538448618561980694766472295
328,1.7010687698435571265569359698667
329,1.7016818236808405577931319766488
330,1.7022930177413638810449823110809
331,1.7029023632896118400900430902627
332,1.7035098714881423926044469611328
333,1.7041155533988143143295103357904
334,1.7047194199839947320351272921700
335,1.7053214821077509002078892462665
336,1.7059217505370222795108767186378
337,1.7065202359427757892561243749230
338,1.7071169489011452927380296177435
339,1.7077118998945513799298012554268
340,1.7083050993128075388798751123494
341,1.7088965574542084293818432135870
342,1.7094862845266027560641133611870
343,1.7100742906484503786844069812102
344,1.7106605858498636533338227721534
345,1.7112451800736348238814868395979
346,1.7118280831762469384516439709261
347,1.7124093049288718562900276594293
348,1.7129888550183521567408237210820
349,1.7135667430481704952572449114415
350,1.7141429785394039487846154568877
351,1.7147175709316654381183647474924
352,1.7152905295840319096012806431205
353,1.7158618637759585605382296299598
354,1.7164315827081805228042061382756
355,1.7169996955036023699302417568412
356,1.7175662112081736574567881666873
357,1.7181311387917537356007935824642
358,1.7186944871489650782452748879841
359,1.7192562651000308733992458861145
360,1.7198164813916058130561054959488
361,1.7203751446975918273288524533225
362,1.7209322636199452444730331557410
363,1.7214878466894699724214604713421
364,1.7220419023666017258350594918709
365,1.7225944390421815350510142842178
366,1.7231454650382174146085972647341
367,1.7236949886086370833778498073670
368,1.7242430179400285250334986832393
369,1.7247895611523730214346852050730
370,1.7253346262997663721003352773964
371,1.7258782213711311531059689795457
372,1.7264203542909189718974463428601
373,1.7269610329198026847541948027686
374,1.7275002650553628853988694169946
375,1.7280380584327593563418008336872
376,1.7285744207253989391935872567635
377,1.7291093595455916131767551112703
378,1.7296428824451979492656224372577
379,1.7301749969162697797775312003428
380,1.7307057103916808401993933840937
381,1.7312350302457502587068747828695
382,1.7317629637948560115665234616979
383,1.7322895182980430191041676447316
384,1.7328147009576208459619561891807
385,1.7333385189197546269210839729182
386,1.7338609792750498769644695682020
387,1.7343820890591269349376617250389
388,1.7349018552531889776288819558005
389,1.7354202847845842789744769884135
390,1.7359373845273599035179404375498
391,1.7364531613028071510839107049444
392,1.7369676218800023610655672482040
393,1.7374807729763405498333521881943
394,1.7379926212580604623826940631164
395,1.7385031733407638951151245273888
396,1.7390124357899289406427711460863
397,1.7395204151214167845449231571325
398,1.7400271178019720622346866681472
399,1.7405325502497153417489828582054
400,1.7410367188346320324429203020202
401,1.7415396298790537685315946192042
402,1.7420412896581330127200262293465
403,1.7425417044003137006854240527289
404,1.7430408802877958195264832645137
405,1.7435388234569913856506718714389
406,1.7440355399989779311600179369047
407,1.7445310359599466154823298162081
408,1.7450253173416424654687726274171
409,1.7455183901017996050628637571111
410,1.7460102601545739890479590473003
411,1.7465009333709679009201314242720
412,1.7469904155792497975051589074272
413,1.7474787125653705794101613382626
414,1.7479658300733727111863376498595
415,1.7484517738057964751974094236136
416,1.7489365494240797888587608193570
417,1.7494201625489544337680991430936
418,1.7499026187608358599978680014129
419,1.7503839236002108440958538557734
420,1.7508640825680179827516284239021
421,1.7513431011260249743490337257844
422,1.7518209846972019700444944043773
423,1.7522977386660888305488280842712
424,1.7527733683791599023768628861626
425,1.7532478791451826929625284643118
426,1.7537212762355740515211066367908
427,1.7541935648847513403283495110400
428,1.7546647502904786101448079319732
429,1.7551348376142116922166306318414
430,1.7556038319814350689988545052437
431,1.7560717384819980272993589757462
432,1.7565385621704472434024449108109
433,1.7570043080663511381113467572137
434,1.7574689811546270996938743810464
435,1.7579325863858593984492259232626
436,1.7583951286766156939335258658302
437,1.7588566129097602962605870716068
438,1.7593170439347631635898493985731
439,1.7597764265680053171527631514362
440,1.7602347655930817450824176939496
441,1.7606920657610989549466393013494
442,1.7611483317909707386835288308272
443,1.7616035683697117976840779218072
444,1.7620577801527238474465664438066
445,1.7625109717640835325129520177764
446,1.7629631477968231760911869409026
447,1.7634143128132115335856815979955
448,1.7638644713450277682932507844425
449,1.7643136278938364898256738408200
450,1.7647617869312560077558814204646
451,1.7652089528992273036421142293432
452,1.7656551302102765628356664304095
453,1.7661003232477770092046580187377
454,1.7665445363662064317850635141661
455,1.7669877738914040272907729775892
456,1.7674300401208218555487838034696
457,1.7678713393237756036269364769410
458,1.7683116757416910546194612301381
459,1.7687510535883487750804788286100
460,1.7691894770501266635169167899621
461,1.7696269502862382097345391392376
462,1.7700634774289696781587661250265
463,1.7704990625839148189729640776338
464,1.7709337098302052680526855012132
465,1.7713674232207406045077025312707
466,1.7718002067824151966034103348409
467,1.7722320645163411166570160289240
468,1.7726630003980721406262365007501
469,1.7730930183778213091719447799138
470,1.7735221223806795748134904140826
471,1.7739503163068298023705727183032
472,1.7743776040317604203879030750383
473,1.7748039894064740745321402210294
474,1.7752294762576987870443778009518
475,1.7756540683880905450930137193252
476,1.7760777695764398319247378594935
477,1.7765005835778724339041362735323
478,1.7769225141240491995267350747407
479,1.7773435649233636398848850264482
480,1.7777637396611377652685540226256
481,1.7781830419998147088750060052951
482,1.7786014755791517065184149524761
483,1.7790190440164088124389706569798
484,1.7794357509065361710727509947357
485,1.7798515998223613217669064223159
486,1.7802665943147711213414382941989
487,1.7806807379128951333924570832169
488,1.7810940341242850809348428498548
489,1.7815064864350935906014290490989
490,1.7819180983102500915585938750738
491,1.7823288731936360034572417935742
492,1.7827388145082578016457193617194
493,1.7831479256564179346896232774424
494,1.7835562100198846882786041307186
495,1.7839636709600591880562972697931
496,1.7843703118181427858335593916359
497,1.7847761359153005147504694189965
498,1.7851811465528245586802505239295
499,1.7855853470122952332427745732431
500,1.785988740555741608940548104451
501,1.786391330425797522477791894917
502,1.786793119845860431458385220294
503,1.787194112020244580608444726695
504,1.787594310134336323379043539558
505,1.787993717354744446412587478691
506,1.788392336829451226979731314240
507,1.788790171687962071430581552410
508,1.789187225041453374640401236635
509,1.789583499982916831358260790468
510,1.789978999587306252715046127341
511,1.790373726911680118989475844067
512,1.790767684995343768853166466922
513,1.791160876859989840858152597183
514,1.791553305509837643663675447448
515,1.791944973931771829337031085233
516,1.792335885095478580160015605887
517,1.792726041953580383778435046284
518,1.793115447441771182184958891053
519,1.793504104478948676590920183970
520,1.793892015967346645304150742692
521,1.794279184792664069964357387548
522,1.794665613824195346464656166405
523,1.795051305914958017847204457769
