Eigenstate,Potential Energy
1,0.500000000042531128501559042313101578
2,0.64623093792873568639614545373926297
3,0.73633761052046506988417679530354904
4,0.79966527951281019406915402647111184
5,0.8480465782279591722989189181506419
6,0.8870660014231637252908775774310683
7,0.9197208305378079556453390043113320
8,0.9477838519494834950256550813093468
9,0.9723835646648512908855080452170445
10,0.9942802228327302568356510870127769
11,1.0140093965943326909355352393701371
12,1.0319621812544195027848881970417599
13,1.0484327068789048573821697400545184
14,1.0636476711510250959223930808250947
15,1.0777854551855280802457244387751782
16,1.090988928399121126238644571705726
17,1.103374281971977304413468301990259
18,1.115037279853936308258076736114359
19,1.126057781868483107469509909200518
20,1.136503081346685166681468575178368
21,1.146430411208890212540591464231097
22,1.155888855123466818425863369478245
23,1.164920825443329409747934298859230
24,1.173563220606360697701342598788332
25,1.181848341931338288838634107745492
26,1.189804627425522610786166897811185
27,1.197457244747232890072471458057989
28,1.204828574564887106744534935494219
29,1.211938607758954027427448049862495
30,1.218805274263777848113227536657888
31,1.225444717200297477119258468027319
32,1.231871522872782903380207008195293
33,1.238098914893063290710597009792781
34,1.244138918945175172235925119119119
35,1.250002503364164053291210878103959
36,1.255699699669293852397397657142821
37,1.261239706387834061312651213179281
38,1.266630978875175761946292831926923
39,1.271881307339178988356481863631668
40,1.276997884880833138472398451600218
41,1.281987367046561866435001171685661
42,1.286855924132511284926357495885581
43,1.291609287274673961927574864482596
44,1.296252789190607180831338689418843
45,1.300791400300934363831085172140222
46,1.305229760845682275910455938316078
47,1.309572209517030014421789691328178
48,1.313822809052459424992025267646096
49,1.317985369167634040596222681989446
50,1.32206346715421092698455345035892
51,1.32606046642232285517536099877727
52,1.32997953322912300742686185994612
53,1.33382365180233430455365520466600
54,1.33759563804018431099777891680887
55,1.34129815194563118155195422718182
56,1.34493370893271154350735739039087
57,1.34850469012564224287909632154829
58,1.35201335175651069707165425398149
59,1.35546183375463464907120322182972
60,1.35885216760964761054953798346387
61,1.36218628358080205375969453400768
62,1.36546601731668140698992644953523
63,1.36869311594227001932203864462560
64,1.37186924366401778051802498134175
65,1.37499598693800124188618794268564
66,1.37807485924143574492373446540377
67,1.38110730548353077320705096253006
68,1.38409470608792458219231226969565
69,1.38703838077562149086229561645929
70,1.38993959207442695089105861780340
71,1.39279954857827680526728732670093
72,1.39561940797755890593689477606306
73,1.39840027987947225362225397871160
74,1.40114322843564997442240582291291
75,1.40384927479264134669569181903391
76,1.40651939937939853497081136392123
77,1.40915454404461128921431959013782
78,1.41175561405556706960220837349282
79,1.41432347996916723695102873600235
80,1.41685897938479182331935165496102
81,1.41936291858785605581394584582647
82,1.42183607409214035608128567818265
83,1.42427919408828680417538577657096
84,1.42669299980523076377678749275328
85,1.42907818679077708956378900189952
86,1.43143542611701447214759678814244
87,1.43376536551580400518330643645309
88,1.43606863044915468153274435042923
89,1.43834582511891502319375075741520
90,1.44059753341986683298115522617623
91,1.44282431983998560389402197147043
92,1.44502673031134382456452366822470
93,1.44720529301487116412820132790419
94,1.44936051914194259111724249380089
95,1.45149290361554432694937632564915
96,1.45360292577356571246850446463167
97,1.45569105001658072388372942372550
98,1.45775772642231000015843589548629
99,1.45980339132880077171231702874711
100,1.46182846788821573988281169750419
101,1.46383336659299265243820574263330
102,1.46581848577601074571341929872216
103,1.46778421208629231032660366237629
104,1.46973092094166037272451346266211
105,1.47165897695968041104730075216105
106,1.47356873436812325956006190931077
107,1.47546053739610827394286710951522
108,1.47733472064700659017659109380938
109,1.47919160945411571622789840672223
110,1.48103152022005427561145726507361
111,1.48285476074075986070910326415301
112,1.48466163051492352009216731147197
113,1.48645242103963886829905680176879
114,1.48822741609299504876398044558950
115,1.48998689200430233208999231819070
116,1.49173111791259080021147552382046
117,1.49346035601399085398432736482225
118,1.49517486179856325063656889886570
119,1.49687488427711266379585852001891
120,1.49856066619849291657547452003293
121,1.50023244425787377095595686831462
122,1.50189044929642024356692947716990
123,1.50353490649280322504171925844707
124,1.50516603554694250030857179115513
125,1.50678405085635370091931979873686
126,1.50838916168545552321879089943242
127,1.50998157232817296827176081998277
128,1.51156148226414977227459376634838
129,1.51312908630887112294037744821550
130,1.51468457475797937547930134900542
131,1.51622813352605007767786524834676
132,1.51775994428008063637996687306730
133,1.51928018456793217608842635167086
134,1.52078902794195386444736149321282
135,1.52228664407800087102296788324143
136,1.52377319889005343826980650753919
137,1.52524885464063123562656629241353
138,1.52671377004718355569425343242179
139,1.52816810038463380554451158319716
140,1.52961199758424130023726592295788
141,1.53104561032893880813709363502923
142,1.53246908414529622435070769163371
143,1.53388256149225209843850857737979
144,1.53528618184674756291644096930701
145,1.53668008178639302130501129254435
146,1.53806439506929008573173885152154
147,1.53943925271112305112718021390871
148,1.54080478305963523502125050433693
149,1.54216111186659198387261398472339
150,1.54350836235733398678634600553627
151,1.54484665529801681085183778996234
152,1.54617610906062695724772471931737
153,1.54749683968586338778440326832783
154,1.54880896094396842110253681075599
155,1.55011258439358623449623746241710
156,1.55140781943872683769982086320043
157,1.55269477338390656521636089606959
158,1.55397355148753690526466256962720
159,1.5552442570136253381527019794332
160,1.5565069912818545215901618812636
161,1.5577618537160983190338884319264
162,1.5590089418914341321406191974335
163,1.5602483515797063905990471632990
164,1.5614801767936958359093893458873
165,1.5627045098299431993010954039195
166,1.5639214413102777893501893376329
167,1.5651310602220982215889594496942
168,1.5663334539574479789946470827781
169,1.5675287083509308654204931909139
170,1.5687169077165060950584395836519
171,1.5698981348832032123669293194891
172,1.5710724712297947090953051393224
173,1.5722399967184617407084937023081
174,1.5734007899274887856992429285574
175,1.5745549280830212326942818286828
176,1.5757024870899156016802861214655
177,1.5768435415617156598605324635971
178,1.5779781648497835865115944914990
179,1.5791064290716126317592818127533
180,1.5802284051383522156460725389678
181,1.5813441627815681160493975084153
182,1.5824537705792654408095845495334
183,1.5835572959811974333146395438903
184,1.5846548053334843530512816239606
185,1.5857463639025642392188326263765
186,1.5868320358984965259983770094115
187,1.5879118844976423099479765543254
188,1.5889859718647367058112888923620
189,1.5900543591743770218003777709002
190,1.5911171066319424054002504222747
191,1.5921742734939641822165947444174
192,1.5932259180879632700386440042165
193,1.5942720978317729719334595627469
194,1.5953128692523604891222435552638
195,1.5963482880041650859644292992844
196,1.5973784088869665989165676475582
197,1.5984032858632986647531130461929
198,1.5994229720754208299943992353196
199,1.6004375198618623753616316054955
200,1.6014469807735517954238346416248
201,1.6024514055895429098198266803916
202,1.6034508443323509821711982298572
203,1.6044453462829095013722039123589
204,1.6054349599951592401227918296531
205,1.6064197333102795560210156122536
206,1.6073997133705749539165622055812
207,1.6083749466330227801551702075064
208,1.6093454788824962701232548443045
209,1.6103113552446686919251153334011
210,1.6112726201986100817962537332939
211,1.6122293175890839302142618639243
212,1.6131814906385540458338526835428
213,1.6141291819589059751393223931843
214,1.6150724335628979535024263018429
215,1.6160112868753405938757584252383
216,1.6169457827440192675770014405833
217,1.6178759614503631362045266104486
218,1.6188018627198698071325780377679
219,1.6197235257322888855201072331198
220,1.6206409891315769309590586516212
221,1.6215542910356217210501017803530
222,1.6224634690457530192692436777378
223,1.6233685602560334079546898588377
224,1.6242696012623442457096049890688
225,1.6251666281712693057620156766256
226,1.6260596766087796332197648587150
227,1.6269487817287282640653396149966
228,1.6278339782211566160877372635878
229,1.6287153003204197038925476440258
230,1.6295927818131348642244030520713
231,1.6304664560459557808627571116782
232,1.6313363559331822180012524917135
233,1.6322025139642004476051720542894
234,1.6330649622107705168028116234334
235,1.6339237323341535264003332634779
236,1.6347788555920886192781937673123
237,1.6356303628456232987855043305021
238,1.6364782845657988081327000912382
239,1.6373226508401960063509412298916
240,1.6381634913793438942246099120408
241,1.6390008355229950715324309890060
242,1.6398347122462709815356463113114
243,1.6406651501656809734738602024152
244,1.6414921775450168712912074474655
245,1.6423158223011274216910653139694
246,1.6431361120095751400732149916108
247,1.6439530739101769361252649664174
248,1.6447667349124360996094390232745
249,1.6455771216008606148460274422941
250,1.6463842602401781880009017769122
251,1.6471881767804458865901745996589
252,1.6479888968620571891033731300475
253,1.6487864458206515163494874524218
254,1.6495808486919259007850051205429
255,1.6503721302163526732543175861260
256,1.6511603148438032519113942692141
257,1.6519454267380844240687557768530
258,1.6527274897813835650339313160444
259,1.6535065275786295967863606121704
260,1.6542825634617700722006836832099
261,1.6550556204939646978759756888229
262,1.6558257214737000203047946878461
263,1.6565928889388241252714525038419
264,1.6573571451705068006393523491131
265,1.6581185121971236870625427121193
266,1.6588770117980665836608001375019
267,1.6596326655074831211978095283700
268,1.6603854946179458357690180001274
269,1.6611355201840549122053847060104
270,1.6618827630259703206252290519582
271,1.6626272437328826293778322607935
272,1.6633689826664164732308440054045
273,1.6641079999639741192031896377611
274,1.6648443155420163383486579253090
275,1.6655779490992844583572547734571
276,1.6663089201199618746143658435564
277,1.6670372478767825030190780569188
278,1.6677629514340779284973410572345
279,1.6684860496507747516658641436991
280,1.6692065611833342265046861033427
281,1.6699245044886420778533773552339
282,1.6706398978268459949910980075591
283,1.6713527592641440137390624427353
284,1.6720631066755209436129090378245
285,1.6727709577474396472782660499821
286,1.6734763299804831970468227227733
287,1.6741792406919529676971353485270
288,1.6748797070184190673890752083203
289,1.6755777459182277547286184824923
290,1.6762733741739665745041378788971
291,1.6769666083948850530270763365753
292,1.6776574650192738379773993956238
293,1.6783459603168061885217627305964
294,1.6790321103908368526132945368250
295,1.6797159311806604186106468771000
296,1.6803974384637367267715253154684
297,1.6810766478578732723391344573932
298,1.6817535748233739169671277508211
299,1.6824282346651507113330936519925
300,1.6831006425348005795386631381600
301,1.6837708134326472767256780905575
302,1.6844387622097507128341828353634
303,1.6851045035698808156234895619353
304,1.6857680520714595104781889102119
305,1.6864294221294722455191495793631
306,1.6870886280173483252315307156297
307,1.6877456838688072345773916439464
308,1.6884006036796784320339984215450
309,1.6890534013096907008379533651455
310,1.6897040904842313935945816864335
311,1.6903526847960791651697980984150
312,1.6909991977071077070118178402295
313,1.6916436425499618756650993915614
314,1.6922860325297080197656742039908
315,1.6929263807254578251755596855600
316,1.6935647000919670539140919300177
317,1.6942010034612067155057270422444
318,1.6948353035439120220061291211529
319,1.6954676129311062682839395407411
320,1.6960979440955996388328324831747
321,1.6967263093934668600649475960998
322,1.6973527210654998125333648187930
323,1.6979771912386386171398516436942
324,1.6985997319273801724847849189764
325,1.6992203550351659053579268620555
326,1.6998390723557469716143530424128
327,1.7004558955745297282093121162776
328,1.7010708362698986656048383518268
329,1.7016839059145217754258005575327
330,1.7022951158766347850495293043737
331,1.7029044774213056977253941951212
332,1.7035120017116806994672349756309
333,1.7041176998102118112761718330527
334,1.7047215826798644707196323627471
335,1.7053236611853093578011794409607
336,1.7059239460940945231759189445432
337,1.7065224480778006909607510670394
338,1.7071191777131807949939572513859
339,1.7077141454832798130556626989672
340,1.7083073617785409903926166167368
341,1.7088988368978941661303300712990
342,1.7094885810498286997252806962682
343,1.7100766043534506352525485819335
344,1.7106629168395240972401496110630
345,1.7112475284514987373909061308832
346,1.7118304490465207069922402903635
347,1.7124116883964307203789133383827
348,1.7129912561887460211796404729188
349,1.7135691620276297962794412687887
350,1.7141454154348455798459352954005
351,1.7147200258506987350312519812430
352,1.7152930026349646957235829451900
353,1.7158643550678032527360333235281
354,1.7164340923506602989187593701230
355,1.7170022236071573984885530539640
356,1.7175687578839673903760810079247
357,1.7181337041516792646467565899355
358,1.7186970713056515560148755922436
359,1.7192588681668499996091893358902
360,1.7198191034826783869291953318329
361,1.7203777859277943668809369289768
362,1.7209349241049166735150532372368
363,1.7214905265456183761013533331826
364,1.7220446017111111755569926012608
365,1.7225971579930189836199223021410
366,1.7231482037141396624606430854019
367,1.7236977471291978167690416446540
368,1.7242457964255854270712321890222
369,1.7247923597240949568485109627088
370,1.7253374450796406466625794868247
371,1.7258810604819708486234932056452
372,1.7264232138563703577105702886839
373,1.7269639130643527066911149803299
374,1.7275031659043467331477539629765
375,1.7280409801123681102160256128096
376,1.7285773633626872972796658413580
377,1.7291123232684856998686525554188
378,1.7296458673825032062033126295891
379,1.7301780031976789402222337167540
380,1.7307087381477819878927766639962
381,1.7312380796080349722764716093031
382,1.7317660348957275955547597105371
383,1.7322926112708248227141654941712
384,1.7328178159365646706287097634477
385,1.7333416560400492238333095496705
386,1.7338641386728295356775302453688
387,1.7343852708714801642358000023816
388,1.7349050596181672798108574013757
389,1.7354235118412110187545643608315
390,1.7359406344156392727507816742577
391,1.7364564341637332305402193018937
392,1.7369709178555682805033934477017
393,1.7374840922095477476271528851441
394,1.7379959638929280459922395523837
395,1.7385065395223381036944094008971
396,1.7390158256642927111080341490755
397,1.7395238288356994224413708725498
398,1.7400305555043590187605426140270
399,1.7405360120894580983155110722100
400,1.7410402049620580941704457161757
401,1.7415431404455767681017076455016
402,1.7420448248162629260252864891514
403,1.7425452643036671757403102774864
404,1.7430444650911066201241032196492
405,1.7435424333161209512729342827910
406,1.7440391750709260546713466281860
407,1.7445346964028622401596786875301
408,1.7450290033148346029451722556200
409,1.7455221017657483757844692866475
410,1.7460139976709417868695963885512
411,1.7465046969026106834885613954125
412,1.7469942052902285041050477465911
413,1.7474825286209626779723063427598
414,1.7479696726400838761847516656279
415,1.7484556430513723981874928103018
416,1.7489404455175181234362379059066
417,1.7494240856605168767553139429390
418,1.7499065690620603706924231242254
419,1.7503879012639240034437882558359
420,1.7508680877683474943385836671119
421,1.7513471340384123091289072624251
422,1.7518250454984151567569565551295
423,1.7523018275342353938081618005407
424,1.7527774854936999504429493333014
425,1.7532520246869421572387911356238
426,1.7537254503867580798547017909590
427,1.7541977678289578462205738900952
428,1.7546689822127119800148465780378
429,1.7551390987008966528912888991322
430,1.7556081224204307176406231021000
431,1.7560760584626120260155585041025
432,1.7565429118834501808159270255312
433,1.7570086877039910602098651405361
434,1.7574733909106442123108021907739
435,1.7579370264555009437663364178537
436,1.7583995992566510034355652682791
437,1.7588611141984960226091513717536
438,1.7593215761320586939237782379102
439,1.7597809898752883703643437301372
440,1.7602393602133641556566691824822
441,1.7606966918989926459965812937127
442,1.7611529896527038868528604105137
443,1.7616082581631451926359030335386
444,1.7620625020873674486978371405253
445,1.7625157260511132264219129671455
446,1.7629679346490977358483309990888
447,1.7634191324452897851076515957152
448,1.7638693239731859649662519332102
449,1.7643185137360858990914401034298
450,1.7647667062073607125849189514746
451,1.7652139058307222219880375409232
452,1.7656601170204856882160233726782
453,1.7661053441618318756057425651577
454,1.7665495916110648061403952343978
455,1.7669928636958688328389408951447
456,1.7674351647155603294291588557687
457,1.7678764989413386921304178803628
458,1.7683168706165330495664799171080
459,1.7687562839568471948581284674962
460,1.7691947431506023823659081814757
461,1.7696322523589758389381602452081
462,1.7700688157162382028457053034059
463,1.7705044373299884943113253726737
464,1.7709391212813847786751764569876
465,1.7713728716253744910727801110872
466,1.7718056923909215534662418007520
467,1.7722375875812295646881100612528
468,1.7726685611739660792893498127843
469,1.7730986171214804520398133095237
470,1.7735277593510227727725805057531
471,1.7739559917649581588419126654362
472,1.7743833182409807029618700323664
473,1.7748097426323224274951498372128
474,1.7752352687679647493492155681111
475,1.7756599004528413784075398036303
476,1.7760836414680451634725316623229
477,1.7765064955710292188929086263849
478,1.7769284664958070080451029646645
479,1.7773495579531502732332441730237
480,1.7777697736307852067782079593547
481,1.7781891171935854143575627460722
482,1.7786075922837652395789767544319
483,1.7790252025210688299796224280743
484,1.7794419515029577644077804062293
485,1.7798578428047987188660521392940
486,1.7802728799800457558179884841478
487,1.7806870665604240859521453970785
488,1.7811004060561098991050486548938
489,1.7815129019559094926633760213950
490,1.7819245577274355607131807661364
491,1.7823353768172827783639212597085
492,1.7827453626512012695832680373151
493,1.7831545186342679337043813633627
494,1.7835628481510567247979540883617
495,1.7839703545658060765646935527166
496,1.7843770412225867173315646474717
497,1.7847829114454655608342648812995
498,1.7851879685386696182111589347946
499,1.7855922157867474286996478943061
500,1.785995656454730139682443234271
501,1.786398293788287982274912962461
502,1.786800131013889597787761877808
503,1.787201171338955683350040146631
504,1.787601417952014800687879277644
505,1.788000874022854195691208391845
506,1.788399542702671359020503181225
507,1.788797427124224175951128684100
508,1.789194530401979305588654183624
509,1.789590855632257020521927228383
510,1.789986405893378560331701206380
511,1.790381184245809230218554559686
512,1.790775193732301145139094246108
513,1.791168437378034235385789483761
514,1.791560918190756190283356637035
515,1.791952639160921714515667750913
516,1.792343603261829307697589586708
517,1.792733813449756642216593182637
518,1.793123272664096325028635330053
519,1.793511983827488825654325284222
520,1.793899949845955427696629111544
521,1.794287173609027999434829149073
522,1.794673657989879860030270588524
523,1.795059405845454178848632209113
