Eigenstate,Potential Energy
1,0.500000000023576558631833270738207359
2,0.64623093780501002974868182673991035
3,0.73633761015703046954041210626784683
4,0.79966527875581608621702764562785219
5,0.8480465769166875246295232150289563
6,0.8870659993940818842541739639738921
7,0.9197208276260618919021493440719224
8,0.9477838479895205121045269715679791
9,0.9723835594907095518442925712183919
10,0.9942802162781857010030569368565120
11,1.0140093884929788162909320173681968
12,1.0319621714397129375626864200891624
13,1.0484326951841923070768784522213318
14,1.0636476574095595716790635855898825
15,1.0777854392304786607787269523983325
16,1.090988910063578657688554574815497
17,1.103374261088957457731854057308625
18,1.115037256256380864322573195660898
19,1.126057755389260021190069718312148
20,1.136503051818587769587977575678961
21,1.146430378464635794393912004269439
22,1.155888818995694752541428331749709
23,1.164920785764598937132496277590412
24,1.173563177209148451951076533188869
25,1.181848294648035621128778489985373
26,1.189804576088432758564395206119425
27,1.197457189188568021959901352900754
28,1.204828514616765268175890542110774
29,1.211938543253396005758497142984984
30,1.218805205032703971643592402074290
31,1.225444643075524359283790285709428
32,1.231871443686020140950398437582977
33,1.238098830475910123007885614423318
34,1.244138829129117106941884493148782
35,1.250002407980569463338391012784937
36,1.255699598549410547561418322592106
37,1.261239599362785837444126013580857
38,1.266630865775958930238275619022758
39,1.271881187996658886607909952522426
40,1.276997759125740625956749460304915
41,1.281987234709489803698167870660134
42,1.286855785043910999604699609014305
43,1.291609141264851701485634078609246
44,1.296252636089720552960578110902909
45,1.300791239938988765119689546072917
46,1.305229593052527309284658146292751
47,1.309572034122355895767371226440296
48,1.313822625885793379287269734037075
49,1.317985178058336687822217089596201
50,1.32206326793147265802319150766955
51,1.32606025891516019785801338934122
52,1.32997931726637498285615918406492
53,1.33382342721265877378598682441151
54,1.33759540465205431214405865106798
55,1.34129790958733125732819975174717
56,1.34493345743233405924404015980410
57,1.34850442931108369497854133848411
58,1.35201308145546801188549442494213
59,1.35546155379460147215483320213486
60,1.35885187781791058623716419680694
61,1.36218598378443709499182850352818
62,1.36546570734254995531469949988285
63,1.36869279561701529498246227596556
64,1.37186891281406102252905147738230
65,1.37499564538953793799795059999011
66,1.37807450682043185136069993631287
67,1.38110694201571892406680504520955
68,1.38409433139880028838222982859268
69,1.38703799469043932844735221371751
70,1.38993919441819673872163895457633
71,1.39279913917575977175154493753067
72,1.39561898665326384481856889507773
73,1.39839984645765166862121777498343
74,1.40114278274029621259206089919927
75,1.40384881664748272034822425795986
76,1.40651892860789543201859613817735
77,1.40915406046995227177303978092261
78,1.41175511750066496069881558145539
79,1.41432297025665519517727263955838
80,1.41685845633701940526949069286141
81,1.41936238202688526614300999714400
82,1.42183552383974168501831920340603
83,1.42427862996593525232415222349396
84,1.42669242163410185403454043094675
85,1.42907759439174286598691829519331
86,1.43143481931063948559126277267304
87,1.43376474412234128554042008654843
88,1.43606799428854169639605337153850
89,1.43834517401076962276318375727666
90,1.44059686718348318103700179342761
91,1.44282363829433009465496858934084
92,1.44502603327505098524806205994553
93,1.44720458030623954302943714564111
94,1.44935979057893063102062980396054
95,1.45149215901576622368645111817061
96,1.45360216495428725843326904152418
97,1.45569027279471513631579886588506
98,1.45775693261441373400277568857579
99,1.45980258075106931686279538345401
100,1.46182764035647940261551289087847
101,1.46383252192271232083892106192784
102,1.46581762378227363890234404320066
103,1.46778333258380771128189024115471
104,1.46973002374475534450474696305020
105,1.47165806188229549621171516514932
106,1.47356780122380816258373956601517
107,1.47545958599801752642275099012999
108,1.47733375080789519862273657875122
109,1.47919062098633479223282398301568
110,1.48103051293554664818907304530042
111,1.48285373445105567059316492153852
112,1.48466058503113579578270194645929
113,1.48645135617245908364374423861072
114,1.48822633165268866185989399106928
115,1.48998578780070430528963939300997
116,1.49172999375510110101546099905851
117,1.49345921171156993660144408695203
118,1.49517369715972751799057305934180
119,1.49687369910992990975656123196198
120,1.49855946031057774819012462319763
121,1.50023121745638301045536271066370
122,1.50188920138804830991911987148576
123,1.50353363728377749482421250305983
124,1.50516474484301864766873484017304
125,1.50678273846281101639058063372247
126,1.50838782740709221115871920026799
127,1.50998021596930142268638968991325
128,1.51156010362859183079150448874553
129,1.51312768519995329869141261563297
130,1.51468315097852806665191867733640
131,1.51622668687838675449242076959829
132,1.51775847456601700524817440463142
133,1.51927869158876532070675150728657
134,1.52078751149846136357694822983487
135,1.52228510397043589270585946936324
136,1.52377163491813981022947926792856
137,1.52524726660355849159865656035567
138,1.52671215774360195743156139210443
139,1.52816646361264934023827514428650
140,1.52961033614141065309476488722197
141,1.53104392401226430985363469860235
142,1.53246737275122077321195257444063
143,1.53388082481665405678706803291369
144,1.53528441968493562771452100453533
145,1.53667829393310106852288529026584
146,1.53806258131867198828954543899504
147,1.53943741285674747011545608981087
148,1.54080291689448038392343253120341
149,1.54215921918304036551042705463664
150,1.54350644294716710270697471717074
151,1.54484470895240984287312380887426
152,1.54617413557014342087572271994435
153,1.54749483884044975721512603040785
154,1.54880693253294872551735697968807
155,1.55011052820565662535813494224702
156,1.55140573526195012675501636344392
157,1.55269266100570673290382348376530
158,1.55397141069469357923317799594553
159,1.5552420875922682415828594001860
160,1.5565047930174578910160595783177
161,1.5577596263934752913567773362773
162,1.5590066852947311005241397705721
163,1.5602460654923973289331910838342
164,1.5614778609985765915275308846013
165,1.5627021641091257536317415501435
166,1.5639190654451844861826263356833
167,1.5651286539934559626290134016011
168,1.5663310171452823863840077494971
169,1.5675262407345604108904614441726
170,1.5687144090745361953857811029631
171,1.5698956049935202907970149997263
172,1.5710699098695602223945213674354
173,1.5722374036641061715051201322445
174,1.5733981649547055997690278558537
175,1.5745522709667608008438223251551
176,1.5756997976043790858783964657396
177,1.5768408194803488632646035684433
178,1.5779754099452707670329511178914
179,1.5791036411158702788083034427047
180,1.5802255839025227896946451725231
181,1.5813413080360137506450697884666
182,1.5824508820935616066725585256248
183,1.5835543735241265641453810558770
184,1.5846518486730294326731910408505
185,1.5857433728059023496770089689578
186,1.5868290101319923562322243437871
187,1.5879088238268416246517117005814
188,1.5889828760543597740931399965442
189,1.5900512279883120052474956152077
190,1.5911139398332387051529549062350
191,1.5921710708448257446518151625386
192,1.5932226793497418506588020966294
193,1.5942688227649613570533375172086
194,1.5953095576165856749424910352897
195,1.5963449395581814146168120978815
196,1.5973750233886488510619006402254
197,1.5983998630696351083091604232062
198,1.5994195117425062245670156416348
199,1.6004340217448909319482728347161
200,1.6014434446268100909547744734476
201,1.6024478311664027560982484289683
202,1.6034472313852622487689972451400
203,1.6044416945633928920344478579441
204,1.6054312692537990222293406804943
205,1.6064160032967162426497211268300
206,1.6073959438334979380478489533931
207,1.6083711373201629205536160720369
208,1.6093416295406184284273623816511
209,1.6103074656195642204717951459137
210,1.6112686900350892617022109038880
211,1.6122253466309683592316457428936
212,1.6131774786286689754931967734086
213,1.6141251286390725966876074487168
214,1.6150683386739256321398626013773
215,1.6160071501570190507896542498553
216,1.6169416039351107092663600492684
217,1.6178717402885943305841274123161
218,1.6187975989419241059001612280279
219,1.6197192190737981922652813055343
220,1.6206366393271136144874451767083
221,1.6215498978186904733909841725614
222,1.6224590321487826578298709492738
223,1.6233640794103686212787704712306
224,1.6242650761982372822927168597802
225,1.6251620586178716053704099792662
226,1.6260550622941334001543081990837
227,1.6269441223797579818063406661003
228,1.6278292735636605027508156945634
229,1.6287105500790611079199951320238
230,1.6295879857114335997309566565388
231,1.6304616138062794020483650298274
232,1.6313314672767372320379060108324
233,1.6321975786110234653987418523155
234,1.6330599798797193410247163377892
235,1.6339187027428981761778318704611
236,1.6347737784571022909257206362148
237,1.6356252378821732619533857162857
238,1.6364731114879372367429166923075
239,1.6373174293607507436837156774408
240,1.6381582212099091515120853910915
241,1.6389955163739220594102150728855
242,1.6398293438266584736956835452082
243,1.6406597321833658018552808648256
244,1.6414867097065643521393728400633
245,1.6423103043118217118075484569834
246,1.6431305435734095225727822132182
247,1.6439474547298440350088883463198
248,1.6447610646893180224547992725729
249,1.6455714000350190229101059350243
250,1.6463784870303442930214803428265
251,1.6471823516240103735658851259084
252,1.6479830194550600643241732567543
253,1.6487805158577718799421258483867
254,1.6495748658664716430297056697550
255,1.6503660942202500939216643644309
256,1.6511542253675866018600548988244
257,1.6519392834708853683366612736720
258,1.6527212924109205666477412934341
259,1.6535002757911972205053226534627
260,1.6542762569422282074029674538307
261,1.6550492589257276997868523760451
262,1.6558193045387257687578419348187
263,1.6565864163176030001847200738197
264,1.6573506165420505733803024382218
265,1.6581119272389543268660736620261
266,1.6588703701862049782561659529200
267,1.6596259669164377107908296874490
268,1.6603787387207011595166543873206
269,1.6611287066520600663108902584337
270,1.6618758915291273271719273985825
271,1.6626203139395347150106551859774
272,1.6633619942433362567845242722372
273,1.6641009525763517073663207917050
274,1.6648372088534473284431582525324
275,1.6655707827717578473022598084426
276,1.6663016938138478731336740124138
277,1.6670299612508202541407072827390
278,1.6677556041453631293833353811400
279,1.6684786413547471777999560162603
280,1.6691990915337651572545822267682
281,1.6699169731376216224135724722938
282,1.6706323044247703177009509788240
283,1.6713451034597024577600985294103
284,1.6720553881156830519374402699255
285,1.6727631760774420800303112293500
286,1.6734684848438165440246263478325
287,1.6741713317303484550948359256834
288,1.6748717338718351576229818198248
289,1.6755697082248366382817845780532
290,1.6762652715701405526904010816819
291,1.6769584405151828105634608381816
292,1.6776492314964266042412076792592
293,1.6783376607817037863562668921418
294,1.6790237444725136335319908787554
295,1.6797074985062810832387401495704
296,1.6803889386585820293484524125042
297,1.6810680805453256080931699455746
298,1.6817449396249027911598680525995
299,1.6824195312002980887574734917012
300,1.6830918704211661132399170461637
301,1.6837619722858734147012874156872
302,1.6844298516435076814541384910584
303,1.6850955231958514784973232877689
304,1.6857590014993241014814655082259
305,1.6864203009668929746761738519175
306,1.6870794358699538561367761921366
307,1.6877364203401770320223026537025
308,1.6883912683713269784909228474658
309,1.6890439938210515804362005081139
310,1.6896946104126412422090124947132
311,1.6903431317367614852255043995847
312,1.6909895712531565455916778437673
313,1.6916339422923253644915636059576
314,1.6922762580571717756103439777961
315,1.6929165316246282092337284158090
316,1.6935547759472542886635659475654
317,1.6941910038548078575526815332644
318,1.6948252280557937894018774859750
319,1.6954574611389877207795079353994
320,1.6960877155749347095196427640690
321,1.6967160037174267368313356610003
322,1.6973423378049551677483032205354
323,1.6979667299621416839557904110205
324,1.6985891922011466661329004992101
325,1.6992097364230567877890391943181
326,1.6998283744192500578195305913282
327,1.7004451178727411325335655242330
328,1.7010599783595040863477409691193
329,1.7016729673497776160013254685293
330,1.7022840962093491099577129695147
331,1.7028933762008190215662312586024
332,1.7035008184848466072062103213702
333,1.7041064341213774079493483736888
334,1.7047102340708506587435189469072
335,1.7053122291953909400308328610376
336,1.7059124302599801298319250681660
337,1.7065108479336125285222537690910
338,1.7071074927904342151323650240002
339,1.7077023753108626996595039936039
340,1.7082955058826929627105015910462
341,1.7088868948021855960336504662887
342,1.7094765522751395410692331967034
343,1.7100644884179490632873673945718
344,1.7106507132586449560005496352150
345,1.7112352367379217929649662515942
346,1.7118180687101487045453919617407
347,1.7123992189443672427822998122791
348,1.7129786971252731470649411863662
349,1.7135565128541855553153022854657
350,1.7141326756500012030033912775843
351,1.7147071949501356975778960072153
352,1.7152800801114515506572814861578
353,1.7158513404111722523407114654072
354,1.7164209850477838020951709241446
355,1.7169890231419240614836464592345
356,1.7175554637372581385040533761539
357,1.7181203158013430425649646190934
358,1.7186835882264808540863832054854
359,1.7192452898305561538526146691201
360,1.7198054293578666500241918269406
361,1.7203640154799387476662948493733
362,1.7209210567963345423824235138006
363,1.7214765618354448336551839716968
364,1.7220305390552731818774278320167
365,1.7225829968442092454306038238868
366,1.7231339435217902754694230062436
367,1.7236833873394536604135181164688
368,1.7242313364812773088659139742067
369,1.7247777990647125034939030397789
370,1.7253227831413049390391965513120
371,1.7258662966974067977573559118723
372,1.7264083476548788187577440445467
373,1.7269489438717823279511386949056
374,1.7274880931430655370762185339338
375,1.7280258032012348033671638333142
376,1.7285620817170223060697123804539
377,1.7290969363000419290089515464262
378,1.7296303744994365166122123596733
379,1.7301624038045183431811406254906
380,1.7306930316453995521701599039899
381,1.7312222653936154408993816267952
382,1.7317501123627377088641454136383
383,1.7322765798089823442950597815501
384,1.7328016749318071126611941642108
385,1.7333254048745022683635850650296
386,1.7338477767247751482626511371565
387,1.7343687975153243963673868888976
388,1.7348884742244077564749089839358
389,1.7354068137764041074357025765490
390,1.7359238230423669301398308516153
391,1.7364395088405695231531227913127
392,1.7369538779370455753681573080620
393,1.7374669370461225691441978335251
394,1.7379786928309465950197219590503
395,1.7384891519040014348573284641712
396,1.7389983208276215642747539555524
397,1.7395062061144987042561481697312
398,1.7400128142281819300644576872371
399,1.7405181515835699032313754583394
400,1.7410222245473995265686641203644
401,1.7415250394387270711055865877832
402,1.7420266025294025201550732933438
403,1.7425269200445399512328355720151
404,1.7430259981629818489053830767478
405,1.7435238430177548139965459205294
406,1.7440204606965227781729228105642
407,1.7445158572420348406127724757636
408,1.7450100386525652299377976174023
409,1.7455030108823482524695547740732
410,1.7459947798420107412742257255907
411,1.7464853513989962659982462039649
412,1.7469747313779846860689866732377
413,1.7474629255613081263054518447399
414,1.7479499396893597987687612884663
415,1.7484357794609999548004552412415
416,1.7489204505339553968660123049149
417,1.7494039585252153986757169528197
418,1.7498863090114211968040977888528
419,1.7503675075292533323041619949087
420,1.7508475595758118242240045383649
421,1.7513264706089931271937333968304
422,1.7518042460478631546709019839765
423,1.7522808912730242039685319233392
424,1.7527564116269793967759769059077
425,1.7532308124144910145162807250083
426,1.7537040989029363353653247677493
427,1.7541762763226584575460141564336
428,1.7546473498673121225692649602274
429,1.7551173246942084507929595456602
430,1.7555862059246514513876243181755
431,1.7560539986442738103461792452437
432,1.7565207079033691060343377348173
433,1.7569863387172157901610983032280
434,1.7574508960664040320879500607924
435,1.7579143848971532501332011505318
436,1.7583768101216282308419790061615
437,1.7588381766182519975730323978640
438,1.7592984892320144104463426844136
439,1.7597577527747771789363706860726
440,1.7602159720255763583036253937196
441,1.7606731517309194896967553905241
442,1.7611292966050809475501413129104
443,1.7615844113303951419509770926151
444,1.7620385005575421953246362160567
445,1.7624915689058354240747338191088
446,1.7629436209635016495042792178360
447,1.7633946612879615071632301561118
448,1.7638446944061029728003556407115
449,1.7642937248145559453999022021622
450,1.7647417569799600397198002915002
451,1.7651887953392330914009270909345
452,1.7656348442998332159703330847386
453,1.7660799082400201647846330147275
454,1.7665239915091123668365856093525
455,1.7669670984277432802704797742292
456,1.7674092332881123505790520746121
457,1.7678504003542352711615334572644
458,1.7682906038621899421118958877421
459,1.7687298480203606411344333453919
460,1.7691681370096800489011982279078
461,1.7696054749838669785478288036111
462,1.7700418660696630223290035266660
463,1.7704773143670667191755983966976
464,1.7709118239495634040297388910831
465,1.7713453988643547076633181996655
466,1.7717780431325848376468862867950
467,1.7722097607495629209542538863033
468,1.7726405556849864238134643904941
469,1.7730704318831581254688827527476
470,1.7734993932632041703646637463992
471,1.7739274437192874658235738816741
472,1.7743545871208207228011922913735
473,1.7747808273126744905856839319355
474,1.7752061681153876894028253639817
475,1.7756306133253695636486136420657
476,1.7760541667151055695205164153086
477,1.7764768320333575300093600362598
478,1.7768986130053627332054973047034
479,1.7773195133330308632675506673527
480,1.7777395366951391585985012054991
481,1.7781586867475243480674801778479
482,1.7785769671232749340259926480843
483,1.7789943814329192020780350803964
484,1.7794109332646117773190351120563
485,1.7798266261843202038807758047235
486,1.7802414637360061325337948350331
487,1.7806554494418079650888662643094
488,1.7810685868022195520412138663010
489,1.7814808792962681715141541518345
490,1.7818923303816896525022156268805
491,1.7823029434951027765694967974275
492,1.7827127220521815460606947240322
493,1.7831216694478252937016811741725
494,1.7835297890563277274958983752290
495,1.7839370842315431032763111586182
496,1.7843435583070527691950135620684
497,1.7847492145963277675311700669910
498,1.7851540563928914389271090529174
499,1.7855580869704795262279188804162
500,1.785961309583199908248613772969
501,1.786363727465687709328982882778
502,1.786765343833263239674979913577
503,1.787166161882084234427397350408
504,1.787566184789300235106803150829
505,1.787965415713201960706682898221
506,1.788363857793371398325978528157
507,1.788761514150830461167542614241
508,1.789158387888187853657819884375
509,1.789554482089782374369541315442
510,1.789949799821828709772025116518
511,1.790344344132558949673225377218
512,1.790738118052363724332125759717
513,1.791131124593931578761566586378
514,1.791523366752387260468865311482
515,1.791914847505429294713868083938
516,1.792305569813465057457957002946
517,1.792695536619744420577098157575
518,1.793084750850493754561142409838
519,1.793473215415047070479291300130
520,1.793860933205977158051725585358
521,1.794247907099223514891899101389
522,1.794634139954221342960124520822
523,1.795019634614028049219760605186
