Eigenstate,Potential Energy
1,0.500000000039939743094034898672952579
2,0.64623093791182044278995470990075065
3,0.73633761047077776924788769268841507
4,0.79966527940931682814906066252607186
5,0.8480465780486866183091696412132821
6,0.8870660011457537560794908800626267
7,0.9197208301397213122887307348100693
8,0.9477838514080849433870093930636364
9,0.9723835639574491269232933685415093
10,0.9942802219365963148399270319368847
11,1.0140093954867131733782077400318837
12,1.0319621799125411329497768808401300
13,1.0484327052799784856449118063339970
14,1.0636476692722478405472692563933754
15,1.0777854530040845840286647318041891
16,1.090988925892184257711267667895607
17,1.103374279116708497682431701375515
18,1.115037276627485660443956675962841
19,1.126057778247989309104981561559402
20,1.136503077309275314210382827930660
21,1.146430406731679535797380982888981
22,1.155888850183558345604351572738263
23,1.164920820017813585589032671346829
24,1.173563214672314966096617825750487
25,1.181848335465826647954443551562905
26,1.189804620405595146664126757007130
27,1.197457237149925293143309766704265
28,1.204828566367220174602396359096464
29,1.211938598937933156418273191250214
30,1.218805264796392515705652129149638
31,1.225444707063520716589656475593283
32,1.231871512043570772013753468432673
33,1.238098903348354332468693057056950
34,1.244138906661889875646595208046886
35,1.250002490319204305168498426131344
36,1.255699685839542387877747496179184
37,1.261239691750153910602999284584080
38,1.266630963406409694104331623013428
39,1.271881291016148952364042869100674
40,1.276997867680339701814836760728993
41,1.281987348945383651360447464901436
42,1.286855905107404402526816213809397
43,1.291609267302371444157623101136280
44,1.296252768247818410558552219803702
45,1.300791378364344502994311563895115
46,1.305229737891951691847052751713230
47,1.309572185522793704412359310957922
48,1.313822783994326439060557551116939
49,1.317985343022186902594590170456934
50,1.32206343989800505398266939608109
51,1.32606043803188597517179860748715
52,1.32997950368095457538915339892756
53,1.33382362107290491679268655265959
54,1.33759560610593511787654906031895
55,1.34129811878297329852537298897082
56,1.34493367451802546048662771107722
57,1.34850465443527723191148361099994
58,1.35201331476678421832406412906049
59,1.35546179544183175510386002493349
60,1.35885212795002034886420198087157
61,1.36218624255056886760520193278831
62,1.36546597489202653440635806318350
63,1.36869307209934289040350670223738
64,1.37186919837893241287289350169843
65,1.37499594018683563427246849011699
66,1.37807481100023126903643858650018
67,1.38110725572829156359341563561894
68,1.38409465479461692427000646957957
69,1.38703832792017320701497472004601
70,1.38993953763272678461500228296173
71,1.39279949252617380334217583180157
72,1.39561935029086179859326270794913
73,1.39840022053394883267757732130204
74,1.40114316740702646935730856911414
75,1.40384921205660179864125467509296
76,1.40651933491158416857755891556834
77,1.40915447782061988237299852185584
78,1.41175554605095232098610682202038
79,1.41432341015943813134915879132871
80,1.41685890774541199472949644629671
81,1.41936284509424314826418119254422
82,1.42183599871966538214826252109700
83,1.42427911681227350116732078828263
84,1.42669292060095494754878845932445
85,1.42907810563346600593282464802934
86,1.43143534298184614587410819341301
87,1.43376528037790658648616645644398
88,1.43606854328360579010396462860478
89,1.43834573590074108967902930567040
90,1.44059744212404243789210186453130
91,1.44282422644143281391758171817040
92,1.44502663478493152623482936058038
93,1.44720519533541439482583476621675
94,1.44936041928420186736056042206279
95,1.45149280155422496994230790107388
96,1.45360282148331717086893598805515
97,1.45569094347199589375627777186670
98,1.45775761759792454207520558696072
99,1.45980328019909242496486023441226
100,1.46182835442760363376830994611790
101,1.46383325077583661458253948133471
102,1.46581836757661060739355677390900
103,1.46778409147888720875443355587632
104,1.46973079790042805025393050565588
105,1.47165885145873651126611841294895
106,1.47356860638152062022797954626699
107,1.47546040689783621673643996947140
108,1.47733458761099020720187804620693
109,1.47919147385421515326112464071792
110,1.48103138203006401202773195302702
111,1.48285461993440798605895900813845
112,1.48466148706587100728532719004266
113,1.48645227492147884335457171211757
114,1.48822726727925205708550191575959
115,1.48998674046843160122471545796531
116,1.49173096362797749905086718030623
117,1.49346019895394934836450842390665
118,1.49517470193633635529581521956226
119,1.49687472158587089064643162147000
120,1.49856050065133371924660161943225
121,1.50023227582782078556441474536759
122,1.50189027795642252567143522659311
123,1.50353473221573448273689151268339
124,1.50516585830560032341391606533766
125,1.50678387062345878621830657588462
126,1.50838897843365089570277491920551
127,1.50998138603002319834307908992166
128,1.51156129289214018886282637241665
129,1.51312889383540702248541183623064
130,1.51468437915538522673440055091058
131,1.51622793476656872228560343178651
132,1.51775974233587248517348472854144
133,1.51927997941107440107004984221921
134,1.52078881954443958639630091532665
135,1.52228643241173834268331282528147
136,1.52377298392686522306968130785190
137,1.52524863635225338187892039533434
138,1.52671354840526476622925267679756
139,1.52816787536073460272315341497587
140,1.52961176914983318629541440607112
141,1.53104537845540342080862440857724
142,1.53246884880392448771807789551624
143,1.53388232265424336895859983448374
144,1.53528593948320877056907906077200
145,1.53667983586833780581109998839271
146,1.53806414556763792778748701962578
147,1.53943899959669839860042452876215
148,1.54080452630316662405543891605842
149,1.54216085143871115484347724444186
150,1.54350809822857499505585354994608
151,1.54484638743881513226350790478178
152,1.54617583744131858830687960468392
153,1.54749656427668394046646229493777
154,1.54880868171505221223186927116869
155,1.55011230131496536963770924219681
156,1.55140753248033028950445661646576
157,1.55269448251555924616224638212302
158,1.55397325667895873473345776900026
159,1.5552439582344303037817203752177
160,1.5565066885015497348393830884097
161,1.5577615469040830649067447534560
162,1.5590086310169989129967650316474
163,1.5602480366120319639968143809534
164,1.5614798577018522464150583388858
165,1.5627041865828888042014502157469
166,1.5639211138768582782043293859331
167,1.5651307285710456295546662272902
168,1.5663331180573796938640413121825
169,1.5675283681703486282990980147417
170,1.5687165632237949946210683145463
171,1.5698977860466306726233855327540
172,1.5710721180175094705979618201689
173,1.5722396390984928351334001428628
174,1.5734004278677445037316904473633
175,1.5745545615512880851490547730617
176,1.5757021160538572737861583387793
177,1.5768431659888719586379285434514
178,1.5779777847075693811716727407297
179,1.5791060443273167870519347793058
180,1.5802280157591365180836118389108
181,1.5813437687344661929321196513807
182,1.5824533718311816719785101657258
183,1.5835568924989058555561314095748
184,1.5846543970836275570774233139719
185,1.5857459508516522591467582067291
186,1.5868316180129057212508691270895
187,1.5879114617436142394970837643543
188,1.5889855442083769946857135954174
189,1.5900539265816542197767391193294
190,1.5911166690686868377974900035717
191,1.5921738309258667927119372666182
192,1.5932254704805744554228460231592
193,1.5942716451505014087220301329406
194,1.5953124114624719519386824224768
195,1.5963478250707812576106003232596
196,1.5973779407750638720444503294541
197,1.5984028125377069350513225192549
198,1.5994224935008222808019650129930
199,1.6004370360027902536206692222056
200,1.6014464915943891788817743383644
201,1.6024509110545214653910842741617
202,1.6034503444055497153670186539930
203,1.6044448409282534967066695464296
204,1.6054344491764183924019437096229
205,1.6064192169910672924211850632701
206,1.6073991915143469467567902688419
207,1.6083744192030756502678201527610
208,1.6093449458419662807259337821393
209,1.6103108165565304328957628888360
210,1.6112720758256751442526115573436
211,1.6122287674939995712974557086652
212,1.6131809347838018435951723773663
213,1.6141286203068004734279539387401
214,1.6150718660755852967508965560398
215,1.6160107135147971516787879798467
216,1.6169452034720502489582659747129
217,1.6178753762286011934648529928742
218,1.6188012715097736291718019465677
219,1.6197229284951417805237477086955
220,1.6206403858284853983397949649274
221,1.6215536816275140125328207377387
222,1.6224628534933776890074336669570
223,1.6233679385199578515642191917470
224,1.6242689733029532281054494225697
225,1.6251659939487634776815133820802
226,1.6260590360831740363153808784186
227,1.6269481348598508244479955977888
228,1.6278333249686466262010552260319
229,1.6287146406437262925966006528125
230,1.6295921156715154549666849388717
231,1.6304657833984745378122419274329
232,1.6313356767387084800203342060784
233,1.6322018281814071499329944201850
234,1.6330642697981326003217722133467
235,1.6339230332499463343565812656714
236,1.6347781497943862813250334993010
237,1.6356296502922971022174659170591
238,1.6364775652145155561764808878673
239,1.6373219246484163633780136503847
240,1.6381627583043207177484714404943
241,1.6390000955217717308524610111142
242,1.6398339652756796628875779091236
243,1.6406643961823409715453457266357
244,1.6414914165053328669596550304294
245,1.6423150541612877458388116452986
246,1.6431353367255500233340313741506
247,1.6439522914377167444141731698381
248,1.6447659452070695552862018723952
249,1.6455763246178930033610022497432
250,1.6463834559346895498702500848686
251,1.6471873651072891945457433742984
252,1.6479880777758565102605214524897
253,1.6487856192758001592347561123316
254,1.6495800146425845470632950019656
255,1.6503712886164474939936369396425
256,1.6511594656470240082215194443336
257,1.6519445698978825519477315014071
258,1.6527266252509702442550375461829
259,1.6535056553109738036558740695430
260,1.6542816834095966160148190619161
261,1.6550547326097522409035600470194
262,1.6558248257096790811200487191119
263,1.6565919852469750652592394576411
264,1.6573562335025577934933293411043
265,1.6581175925045486710942866564682
266,1.6588760840320831967360299559062
267,1.6596317296190506181137050848637
268,1.6603845505577629878842254541095
269,1.6611345679025578891323668764448
270,1.6618818024733305537921416658525
271,1.6626262748590046572649880558061
272,1.6633680054209357680843632230261
273,1.6641070142962548950260972155104
274,1.6648433214011493399676333583078
275,1.6655769464340847313602001051383
276,1.6663079088789665159523617215639
277,1.6670362280082483920630279793876
278,1.6677619228859794383375896842530
279,1.6684850123708014404403222050082
280,1.6692055151188885085384638707717
281,1.6699234495868368743902784514557
282,1.6706388340345023642948474896049
283,1.6713516865277887603392543911872
284,1.6720620249413842064680061911406
285,1.6727698669614524666252587029600
286,1.6734752300882750597042451777156
287,1.6741781316388493305854962048064
288,1.6748785887494388590296385432728
289,1.6755766183780808544788399091952
290,1.6762722373070512692846599089844
291,1.6769654621452854712926899768631
292,1.6776563093307573606811728557257
293,1.6783447951328208368181435320465
294,1.6790309356545086520432018063477
295,1.6797147468347907395084089852787
296,1.6803962444507996006299475758578
297,1.6810754441200126838662494767819
298,1.6817523613024010715643197056163
299,1.6824270113025412777214289708558
300,1.6830994092716919072562214293726
301,1.6837695702098355882161714955487
302,1.6844375089676882698426423991154
303,1.6851032402486730596118204198978
304,1.6857667786108621767697655128329
305,1.6864281384688884508777192828000
306,1.6870873340958256285762294044518
307,1.6877443796250346705317229980454
308,1.6883992890519835170029897853041
309,1.6890520762360364113037568681343
310,1.6897027549022131163166886551314
311,1.6903513386429216189723829245822
312,1.6909978409196618358363352742377
313,1.6916422750647017125626081130122
314,1.6922846542827275214985943846067
315,1.6929249916524676770950640348659
316,1.6935633001282914447741486357999
317,1.6941995925417800818715234531750
318,1.6948338816032757619092374271635
319,1.6954661799034054237729040334896
320,1.6960964999145795470625987628633
321,1.6967248539924697725644617282190
322,1.6973512543774614822859934630630
323,1.6979757131960848531058838424217
324,1.6985982424624233611915139488986
325,1.6992188540795014991769871296697
326,1.6998375598406499433416870048049
327,1.7004543714308509915574399290625
328,1.7010693004280614612128218694833
329,1.7016823583045180219863292812410
330,1.7022935564280213951479225228844
331,1.7029029060632008579795687812990
332,1.7035104183727601145523531402507
333,1.7041161044187049114124302614425
334,1.7047199751635505821954361679126
335,1.7053220414715138360994032293323
336,1.7059223141096848482640546510602
337,1.7065208037491825243003128462662
338,1.7071175209662939978192211583879
339,1.7077124762435944254643767136990
340,1.7083056799710531707870072013652
341,1.7088971424471220905387238561849
342,1.7094868738798084205300836753252
343,1.7100748843877318988423066155383
344,1.7106611840011661200983059195261
345,1.7112457826630659401263144515129
346,1.7118286902300784058104269015634
347,1.7124099164735407754858280512663
348,1.7129894710804624416034138401336
349,1.7135673636544943005874859364119
350,1.7141436037168831122289286821924
351,1.7147182007074129362175747487292
352,1.7152911639853333281805769320223
353,1.7158625028302735796071749647140
354,1.7164322264431444161380033293396
355,1.7170003439470275195055162064854
356,1.7175668643880510829183233789050
357,1.7181317967362546389366523719450
358,1.7186951498864424038516678572250
359,1.7192569326590208837174119839978
360,1.7198171538008296799674308780755
361,1.7203758219859572394957192181966
362,1.7209329458165480308166009734256
363,1.7214885338235957419287353480573
364,1.7220425944677275238919109944939
365,1.7225951361399775164989542671210
366,1.7231461671625485337271698326597
367,1.7236956957895648009958070245976
368,1.7242437302078125329764801864612
369,1.7247902785374729845180878608497
370,1.7253353488328436878806723919801
371,1.7258789490830507296056011258599
372,1.7264210872127510235213351719481
373,1.7269617710828245466200987552776
374,1.7275010084910608463055653239034
375,1.7280388071728305106028778740515
376,1.7285751748017530575676851742712
377,1.7291101189903530331282488996549
378,1.7296436472907074847931513947303
379,1.7301757671950866510509383310526
380,1.7307064861365846232491792022339
381,1.7312358114897428554135474974605
382,1.7317637505711636402007404531897
383,1.7322903106401182256722784856314
384,1.7328154988991445366149953618004
385,1.7333393224946381216887775222023
386,1.7338617885174369850800150937398
387,1.7343829040033960520223816681711
388,1.7349026759339552050096234674041
389,1.7354211112367015654111800073822
390,1.7359382167859232096217128775438
391,1.7364539994031546367110447968593
392,1.7369684658577175959764916828244
393,1.7374816228672547479094019030914
394,1.7379934770982547396984510569395
395,1.7385040351665715521680005791415
396,1.7390133036379377690456730430317
397,1.7395212890284713984929311413199
398,1.7400279978051762550605270219374
399,1.7405334363864344678868710005795
400,1.7410376111424954151252905528451
401,1.7415405283959571335474311038659
402,1.7420421944222409485689072779877
403,1.7425426154500621454656432897378
404,1.7430417976618945749015766418428
405,1.7435397471944266582423496934797
406,1.7440364701390149017219965122308
407,1.7445319725421320362137062045159
408,1.7450262604058072858319372042021
409,1.7455193396880616264752631268061
410,1.7460112163033405488235101720120
411,1.7465018961229385858407809136573
412,1.7469913849754191874094873054648
413,1.7474796886470310211914115447470
414,1.7479668128821171235981455206821
415,1.7484527633835211848711929403791
416,1.7489375458129873979435587793190
417,1.7494211657915567196092248740888
418,1.7499036288999567072767129917876
419,1.7503849406789892098607013715348
420,1.7508651066299108947749047845932
421,1.7513441322148105632528792332657
422,1.7518220228569825356445515676211
423,1.7522987839412939428713435059678
424,1.7527744208145495378121667493335
425,1.7532489387858504060254723692211
426,1.7537223431269501826942213549098
427,1.7541946390726062604733300895210
428,1.7546658318209260019743145559507
429,1.7551359265337118693246421750548
430,1.7556049283367983329583275837133
431,1.7560728423203880633417076536781
432,1.7565396735393845552011654867212
433,1.7570054270137165222024597797674
434,1.7574701077286651600713718580546
435,1.7579337206351821018840042383804
436,1.7583962706502059665725988644705
437,1.7588577626569756620715328611926
438,1.7593182015053394252235973550253
439,1.7597775920120602798099902516086
440,1.7602359389611189839740236224274
441,1.7606932471040116269506734333542
442,1.7611495211600454388100447135147
443,1.7616047658166324609684886478704
444,1.7620589857295756969021826877078
445,1.7625121855233570737844633081669
446,1.7629643697914182394586057110917
447,1.7634155430964413639819617569934
448,1.7638657099706231640064681757100
449,1.7643148749159499905696726788304
450,1.7647630424044661328023023768006
451,1.7652102168785428407195634574446
452,1.7656564027511409085125469905392
453,1.7661016044060725614840854435367
454,1.7665458261982590356505424185484
455,1.7669890724539874739565724996364
456,1.7674313474711624361774621475023
457,1.7678726555195567182921351494981
458,1.7683130008410578773029712319623
459,1.7687523876499129755055845115524
460,1.7691908201329711866345600397213
461,1.7696283024499221136907209757269
462,1.7700648387335330315863268116671
463,1.7705004330898836584642833446870
464,1.7709350895985966166846183687974
465,1.7713688123130675523035496600630
466,1.7718016052606920438329101151810
467,1.7722334724430885808889468146203
468,1.7726644178363226284648728324479
469,1.7730944453911242536226178081334
470,1.7735235590331068392399052054250
471,1.7739517626629811520223803353815
472,1.7743790601567690624926460209310
473,1.7748054553660122679639847250982
474,1.7752309521179835225971399581100
475,1.7756555542158892974052390503334
476,1.7760792654390763841200200177001
477,1.7765020895432327760291944500597
478,1.7769240302605875018875377816071
479,1.7773450913001083024013730673040
480,1.7777652763476975439859978697263
481,1.7781845890663849207906948337981
482,1.7786030330965205139022501169377
483,1.7790206120559635878469015298715
484,1.7794373295402699442723128039888
485,1.7798531891228793098163824134850
486,1.7802681943552973430842022702705
487,1.7806823487672791096514014565560
488,1.7810956558670086217151482584764
489,1.7815081191412776706286903097974
490,1.7819197420556618155082028122202
491,1.7823305280546956622508075895132
492,1.7827404805620460212166084207994
493,1.7831496029806829186431423021695
494,1.7835578986930495558988340286664
495,1.7839653710612294091363375348994
496,1.7843720234271137138340643944958
497,1.7847778591125650198156995128322
498,1.7851828814195807620700526361183
499,1.7855870936304543447661284195850
500,1.785990499007935869005628034359
501,1.786393100795388250401484995697
502,1.786794902216946181708379929308
503,1.787195906477669408682334122197
504,1.787596116763698163053385577000
505,1.787995536242403600129485225177
506,1.788394168062538971167817186987
507,1.788792015354389378592242350482
508,1.789189081229919754069968770127
509,1.789585368782919290389796535230
510,1.789980881089148380433478480538
511,1.790375621206481294374924319527
512,1.790769592175048495364725138809
513,1.791162797017377209499879439256
514,1.791555238738530926614502000256
515,1.791946920326248206264757605501
516,1.792337844751078999378340469539
517,1.792728014966519560447567796770
518,1.793117433909147735797814132113
519,1.793506104498755410027556226574
520,1.793894029638480967781611934040
521,1.794281212214938566252848164741
522,1.794667655098348494785552697432
523,1.795053361142665058914415157436
