Eigenstate,Potential Energy
1,0.500000000135850820013265008150250331
2,0.64623093853788180646963574083933274
3,0.73633761230980000543942792470714343
4,0.79966528323984009008446202814961342
5,0.8480465846840469851286663843039886
6,0.8870660114135915289014718302716994
7,0.9197208448744410418292103861893297
8,0.9477838714477204363109415950327176
9,0.9723835901422143888525960495226618
10,0.9942802551081581259969319663936048
11,1.0140094364878033874245301236111612
12,1.0319622295867421050877175663053180
13,1.0484327644716027645028688007471560
14,1.0636477388262721207243791938305546
15,1.0777855337661164049341351662857249
16,1.090989018708449284052414547342410
17,1.103374384834051200262442317240200
18,1.115037396093378995908432119707569
19,1.126057912310550611174157812343835
20,1.136503226817286579332870330318184
21,1.146430572534610888068496017718429
22,1.155889033131593849631631914561600
23,1.164921020961878826924873144637760
24,1.173563434464105986625901824851963
25,1.181848574957839938087020472190710
26,1.189804880451158475728579267140168
27,1.197457518603229215599078371638384
28,1.204828870083350090039787181176119
29,1.211938925772901830692874240678141
30,1.218805615607172992222244159939685
31,1.225445082708079562928518455523053
32,1.231871913380901619307252452404454
33,1.238099331238511674256185844684600
34,1.244139361966023100116978454615995
35,1.250002973899591940284048342081936
36,1.255700198559626543252896914287221
37,1.261240234474574903475379635151561
38,1.266631537001040849495336064984075
39,1.271881896348131569741677408418156
40,1.276998505618118182362546402391425
41,1.281988020358740781412734715713033
42,1.286856610867496789925987172380357
43,1.291610008281765105269516930230153
44,1.296253545320524506500236465907914
45,1.300792192405855224306745455793152
46,1.305230589779276291415944120157569
47,1.309573076134494678921248352588386
48,1.313823714210555859668334399715522
49,1.317986313724722895877590408730709
50,1.32206445197028843447995083016764
51,1.32606149235905703112997792685022
52,1.32998060114989000952656433864278
53,1.33382476257225494409766233467336
54,1.33759679252616072262604157659507
55,1.34129935101638365286133796098276
56,1.34493495345881550702213776183762
57,1.34850598097956543295863917691305
58,1.35201468981265047444444079797844
59,1.35546321988935549577982078594078
60,1.35885360270131879817920179078127
61,1.36218776850983548790313892137530
62,1.36546755296556965097604460110249
63,1.36869470319562450030472137399802
64,1.37187088340860718108641364187323
65,1.37499768006279008041897899660000
66,1.37807660663762314796774003190410
67,1.38110910804458944321563866939738
68,1.38409656470963996401225737217056
69,1.38704029635613114040886708444052
70,1.38994156551426010950014945943896
71,1.39280158078039418326220817363144
72,1.39562149984739267899381252072842
73,1.39840243232496627556508101619995
74,1.40114544236730021012297813340020
75,1.40385155112353652880040345817257
76,1.40652173902526104821903161396521
77,1.40915694792383828615849607278721
78,1.41175808308927182158365577819840
79,1.41432601508122072422952374097508
80,1.41686158150186456829837053784296
81,1.41936558863946020334827095772674
82,1.42183881301067200489738036565099
83,1.42428200280906859348009127240370
84,1.42669587926655471917451880485336
85,1.42908113793394773244792548930031
86,1.43143844988639219677713880377089
87,1.43376846285884872770245977560902
88,1.43607180231646976523732499701684
89,1.43834907246429148439569893489054
90,1.44060085720032783186994441783941
91,1.44282772101583122484252778511301
92,1.44503020984619615037527961181526
93,1.44720885187571964876609518538728
94,1.44936415829918973552481830197534
95,1.45149662404305166259192549976852
96,1.45360672844870009730779079871631
97,1.45569493592026095553216384365242
98,1.45776169653905375101820149345514
99,1.45980744664677185095877284781651
100,1.46183260939927168720591011710708
101,1.46383759529273266851197461597982
102,1.46582280266382396441993040710464
103,1.46778861816540641781848751479340
104,1.46973541721919057846911441915126
105,1.47166356444667877605448190850013
106,1.47357341407962838705636101272095
107,1.47546531035119536781634703310326
108,1.47733958786883788657882682314866
109,1.47919657196999129378333329690131
110,1.48103657906146324974885149064795
111,1.48285991694343196769510490758440
112,1.48466688511888109641431626126694
113,1.48645777508924923111277357176994
114,1.48823287063702328318723820379116
115,1.48999244809596449119965464393448
116,1.49173677660960752366643016470963
117,1.49346611837864141127275527484474
118,1.49518072889774001501888171338173
119,1.49688085718237602308925604422947
120,1.49856674598612662700264527466499
121,1.50023863200894076035781478263514
122,1.50189674609681887035800306419247
123,1.50354131343332399936707019557105
124,1.50517255372332527394229550579129
125,1.50679068136934533252798637912493
126,1.50839590564086802569730932427137
127,1.50998843083694214494450251502983
128,1.51156845644239434884241237910314
129,1.51313617727795238214220937456253
130,1.51469178364456130152757220171634
131,1.51623546146216001761836402892390
132,1.51776739240317048562065804466143
133,1.51928775402094009543550883614615
134,1.52079671987336653608444890711336
135,1.52229445964191630096693266263063
136,1.52378113924624431293617062126174
137,1.52525692095460884023980171846997
138,1.52672196349026226238093044871366
139,1.52817642213399613905241469306982
140,1.52962044882300358933073568135221
141,1.53105419224621743082694449996044
142,1.53247779793627445522824219580849
143,1.53389140835824756649531012837892
144,1.53529516299528032834613610007872
145,1.53668919843125427989931128245497
146,1.53807364843061150960187158590231
147,1.53944864401544677460214811253334
148,1.54081431353998449469646026289768
149,1.54217078276254242190806570825546
150,1.54351817491508562667883407209790
151,1.54485661077046671503673369252910
152,1.54618620870744257601516648040226
153,1.54750708477355660912956745559421
154,1.54881935274597033126517913001916
155,1.55012312419032259908289202693404
156,1.55141850851769431342290110853100
157,1.55270561303974965242752276483375
158,1.55398454302212565160566125191773
159,1.5552554017361338037945608656766
160,1.5565182905088400166833019411483
161,1.5577733087715814241446543693086
162,1.5590205541069795126062456856198
163,1.5602601222945044158918313259615
164,1.5614921073546450152624756373457
165,1.5627166015917334450140242649499
166,1.5639336956354745193586355228423
167,1.5651434784812273130538941091423
168,1.5663460375290815848408423957593
169,1.5675414586217741059298417271282
170,1.5687298260814846368036336962459
171,1.5699112227455517469550905410580
172,1.5710857300011463443760831121387
173,1.5722534278189383172915279816949
174,1.5734143947857921318198501546431
175,1.5745687081365253706613845868419
176,1.5757164437847599193418806889298
177,1.5768576763528990607251164360825
178,1.5779924792012596323717957986346
179,1.5791209244563856918750679026859
180,1.5802430830385746367604352276789
181,1.5813590246886384277273646389053
182,1.5824688179939276108153710645835
183,1.5835725304136411879686478529194
184,1.5846702283034465777392901086804
185,1.5857619769394314744628520702093
186,1.5868478405414085747356244749799
187,1.5879278822955969719115404893067
188,1.5890021643766956551530718762935
189,1.5900707479693728443507964286824
190,1.5911336932891868122169907602840
191,1.5921910596029574163378801014403
192,1.5932429052486047236236906109955
193,1.5942892876544730312461359110028
194,1.5953302633581536250907481162177
195,1.5963658880248242083340619381959
196,1.5973962164651186922995724399443
197,1.5984213026525417251746201841437
198,1.5994411997404421208311830936307
199,1.6004559600785580218773229666842
200,1.6014656352291477374129614197653
201,1.6024702759827172321897850112204
202,1.6034699323733576436159432377405
203,1.6044646536937034816167424478588
204,1.6054544885095231265553407632724
205,1.6064394846739515908694809074386
206,1.6074196893413785634745270455121
207,1.6083951489809976079166222484883
208,1.6093659093900307360470035840604
209,1.6103320157066341004184047000382
210,1.6112935124224963013821352094808
211,1.6122504433951366682293512784624
212,1.6132028518599137418948859949705
213,1.6141507804417483375133857931450
214,1.6150942711665761629212663781887
215,1.6160333654725291997485687605717
216,1.6169681042208598019773994001000
217,1.6178985277066114714365168111798
218,1.6188246756690452831191645279591
219,1.6197465873018252337055404675287
220,1.6206643012629750218700110508489
221,1.6215778556846041631269591805866
222,1.6224872881824206370522333849740
223,1.6233926358650236281925134775037
224,1.6242939353429914204520833231305
225,1.6251912227377670020003999184661
226,1.6260845336903449191521598783057
227,1.6269739033697680225862124989663
228,1.6278593664814359166364688136733
229,1.6287409572752322643393761821626
230,1.6296187095534756350269692728929
231,1.6304926566786956842950460624258
232,1.6313628315812450758337177082450
233,1.6322292667667421312055588630390
234,1.6330919943233603542296125419802
235,1.6339510459289580016746536895653
236,1.6348064528580573996474214496225
237,1.6356582459886776264327656147804
238,1.6365064558090222934383649022900
239,1.6373511124240278604798978645317
240,1.6381922455617746394940958001622
241,1.6390298845797647687089408935671
242,1.6398640584710700139192024545056
243,1.6406947958703534283529704905003
244,1.6415221250597665600895920559136
245,1.6423460739747265808825235710604
246,1.6431666702095758557136277133197
247,1.6439839410231253356343133992696
248,1.6447979133440893552411017636862
249,1.6456086137764068041064413690092
250,1.6464160686044590571104434068084
251,1.6472203037981825639440764710792
252,1.6480213450180788965560860029337
253,1.6488192176201273270456708142732
254,1.6496139466605995931698119033516
255,1.6504055569007807318272593632553
256,1.6511940728115960662421896509276
257,1.6519795185781507385652708115383
258,1.6527619181041782329462268933289
259,1.6535412950164046929473024058292
260,1.6543176726688294200405480998712
261,1.6550910741469218673101847492046
262,1.6558615222717398541776597347809
263,1.6566290396039678531453588162952
264,1.6573936484478807998532783814753
265,1.6581553708552319521395761871972
266,1.6589142286290669663285385605671
267,1.6596702433274674044942791384741
268,1.6604234362672237069439279348147
269,1.6611738285274419003909568827177
270,1.6619214409530797665427919845316
271,1.6626662941584217556685001723182
272,1.6634084085304866253513590960694
273,1.6641478042323752482086587822175
274,1.6648845012065557982988715870533
275,1.6656185191780901925289434379222
276,1.6663498776578000661805172988324
277,1.6670785959453797673709176316916
278,1.6678046931324481259298008437343
279,1.6685281881055505007330494268012
280,1.6692490995491031999711105832733
281,1.6699674459482881648240871713599
282,1.6706832455918954145011875103448
283,1.6713965165751164668169403363488
284,1.6721072768022858926098113486908
285,1.6728155439895778130758155486621
286,1.6735213356676533666101185616476
287,1.6742246691842642063530539670061
288,1.6749255617068084321527472713750
289,1.6756240302248436070017895716671
290,1.6763200915525575925110745094360
291,1.6770137623311950464472222857668
292,1.6777050590314424693743240203674
293,1.6783939979557757083676135018318
294,1.6790805952407649569503983222638
295,1.6797648668593393406928389162576
296,1.6804468286230186763906388759636
297,1.6811264961841023389535318719634
298,1.6818038850378245552210014893753
299,1.6824790105244729300943954604672
300,1.6831518878314719581759266141373
301,1.6838225319954319350080471170482
302,1.6844909579041653635624634296423
303,1.6851571802986680318947714302623
304,1.6858212137750683423528729044090
305,1.6864830727865463237887363840445
306,1.6871427716452215930004611365451
307,1.6878003245240074504514908414566
308,1.6884557454584385918705126172355
309,1.6891090483484685282555002535688
310,1.6897602469602370527638791932020
311,1.6904093549278113528152322819330
312,1.6910563857548982840480473843885
313,1.6917013528165292024791447187081
314,1.6923442693607191628307304278472
315,1.6929851485100998064551877909086
316,1.6936240032635273183842785079984
317,1.6942608464976629960929098227258
318,1.6948956909685317853115218885769
319,1.6955285493130559286442240828409
320,1.6961594340505637325544863056772
321,1.6967883575842773760740460682210
322,1.6974153322027758801984070046702
323,1.6980403700814367566631564254053
324,1.6986634832838553180189574332514
325,1.6992846837632434158910193462811
326,1.6999039833638058496849603858901
327,1.7005213938220972716657691073289
328,1.7011369267683567829154181950519
329,1.7017505937278252004804056127505
330,1.7023624061220414329750530222799
331,1.7029723752701194089715204539772
332,1.7035805123900066253067053366952
333,1.7041868285997246999234281387532
334,1.7047913349185901194776350362062
335,1.7053940422684195030486531913518
336,1.7059949614747154465619821536644
337,1.7065941032678358269338363338482
338,1.7071914782841476317213331583570
339,1.7077870970671613859267223151132
340,1.7083809700686522746251843153176
341,1.7089731076497636825456422074711
342,1.7095635200820956555021751189312
343,1.7101522175487779294461572856589
344,1.7107392101455275290527137278029
345,1.7113245078816927636089524038868
346,1.7119081206812811036869000134117
347,1.7124900583839745128899521732083
348,1.7130703307461290555891913674248
349,1.7136489474417623350262411656974
350,1.7142259180635263138682940273824
351,1.7148012521236676148291345939392
352,1.7153749590549749940349366056277
353,1.7159470482117132821385589776113
354,1.7165175288705452185817125495571
355,1.7170864102314415555524677552905
356,1.7176537014185776530187959877453
357,1.7182194114812198158213529735627
358,1.7187835493946006291331080381011
359,1.7193461240607790501037786168379
360,1.7199071443094942066675192382365
361,1.7204666188990046618396072980351
362,1.7210245565169196389766781602338
363,1.7215809657810168179016078442644
364,1.7221358552400517406239106877666
365,1.7226892333745570782135196972427
366,1.7232411085976306521555862658142
367,1.7237914892557151183425237918569
368,1.7243403836293661190910771902155
369,1.7248877999340135529000011518147
370,1.7254337463207116928403478771661
371,1.7259782308768810251679043704692
372,1.7265212616270407834908295717591
373,1.7270628465335321646693379249086
374,1.7276029934972365550091743269129
375,1.7281417103582794790428906020846
376,1.7286790048967317485142741964738
377,1.7292148848332996228722992497890
378,1.7297493578300071714877077723556
379,1.7302824314908727009490057735719
380,1.7308141133625760285418052247284
381,1.7313444109351195024700549950014
382,1.7318733316424799129512031059674
383,1.7324008828632559956838998481678
384,1.7329270719213065190952998197321
385,1.7334519060863826052924153929430
386,1.7339753925747549729752647832621
387,1.7344975385498318822714911185943
388,1.7350183511227717499514302655454
389,1.7355378373530911424462713244836
390,1.7360560042492653696386910202329
391,1.7365728587693220313915878314984
392,1.7370884078214311614336265749140
393,1.7376026582644894795888519646830
394,1.7381156169086973722475674325473
395,1.7386272905161314981238050197798
396,1.7391376858013127117513235915761
397,1.7396468094317689776818673603588
398,1.7401546680285933281064237822557
399,1.7406612681669954758619929266392
400,1.7411666163768514306375130463851
401,1.7416707191432472168433569638613
402,1.7421735829070174897274593499664
403,1.7426752140652819237074741117224
404,1.7431756189719773211776007797459
405,1.7436748039383829644477551584453
406,1.7441727752336453791576178575582
407,1.7446695390852996874106084524175
408,1.7451651016797851176262899309933
409,1.7456594691629575983956728199313
410,1.7461526476406020195188989651481
411,1.7466446431789384915252870793384
412,1.7471354618051262602903551849450
413,1.7476251095077664326293082281047
414,1.7481135922374000165152330475540
415,1.7486009159070056427403927226238
416,1.7490870863924934837482438604256
417,1.7495721095331983075566191978510
418,1.7500559911323689229592387271192
419,1.7505387369576583911275323467970
420,1.7510203527416100859711220055686
421,1.7515008441821436598716824564178
422,1.7519802169430403050077208933464
423,1.7524584766544252593997705214498
424,1.7529356289132512889472979073682
425,1.7534116792837796471439125688725
426,1.7538866332980622466572374463748
427,1.7543604964564226599546205561009
428,1.7548332742279361007092245739829
429,1.7553049720509124421460036103982
430,1.7557755953333752842169253227114
431,1.7562451494535447293248066641485
432,1.7567136397603211787730832042087
433,1.7571810715737656574072961122881
434,1.7576474501855879411901579007285
435,1.7581127808596304957807069024158
436,1.7585770688323563194828798123364
437,1.7590403193133390526317079845599
438,1.7595025374857545449833756943986
439,1.7599637285068747810827011159294
440,1.7604238975085654631767510086701
441,1.7608830495977846500285868549658
442,1.7613411898570862644165922957611
443,1.7617983233451283773981095730034
444,1.7622544550971811608163125436548
445,1.7627095901256441232559500783056
446,1.7631637334205639513142759442741
447,1.7636168899501604366143895620772
448,1.7640690646613540324233824943418
449,1.7645202624803032212238169335153
450,1.7649704883129442025067148826142
451,1.7654197470455407775594282594659
452,1.7658680435452376639973198918315
453,1.7663153826606233932511086083658
454,1.7667617692222996097643140773021
455,1.7672072080434608464532812205245
456,1.7676517039204805459769830484093
457,1.7680952616335085192979290289592
458,1.7685378859470767576240401341414
459,1.7689795816107166577061569216630
460,1.7694203533595878761498399350851
461,1.7698602059151172646478955875721
462,1.7702991439856517318509253819481
463,1.7707371722671243005829527311348
464,1.7711742954437322203635745943839
465,1.7716105181886318391571965286112
466,1.7720458451646481385037008044259
467,1.7724802810249990264823397481059
468,1.7729138304140402610792536718735
469,1.7733464979680243830951294472071
470,1.7737782883158821337867986469022
471,1.7742092060800216263417752611685
472,1.7746392558771506250695577212634
473,1.7750684423191183972291151957357
474,1.7754967700137858168595422855819
475,1.7759242435659138839079750962768
476,1.7763508675780844822666123339084
477,1.7767766466516450932817265912290
478,1.7772015853876836026991277727427
479,1.7776256883880336359275256711552
480,1.7780489602563124506277032039838
481,1.7784714055989916667830303927340
482,1.7788930290265062333180069115901
483,1.7793138351543989493540186354534
484,1.7797338286045054130502257415398
485,1.7801530140061830508545938295559
486,1.7805713959975811191607660029571
487,1.7809889792269609746480370456190
488,1.7814057683540638071916848125476
489,1.7818217680515318213654170559975
490,1.7822369830063836592814797916157
491,1.7826514179215493126347109251616
492,1.7830650775174664229652689341313
493,1.7834779665337414673979008628568
494,1.7838900897308806729968542772083
495,1.7843014518920928449034630558183
496,1.7847120578251716070167749507359
497,1.7851219123644572761937036434098
498,1.7855310203728871531875965649610
499,1.7859393867441368910369105840281
500,1.786347016404860585294981946449
501,1.786753914317031223662229628412
502,1.787160085480395248996038552921
503,1.787565534935039441967014577644
504,1.787970267764085179839215242371
505,1.788374289096510644079345718834
506,1.788777604110114986321009234315
507,1.789180218034631179998747531413
508,1.789582136154996726239011827627
509,1.789983363814790677284874244072
510,1.790383906419854026239982774596
511,1.790783769442098518061386378624
512,1.791182958423520505484606362162
513,1.791581478980432167151991145485
514,1.791979336807925529912709673432
515,1.792376537684585593689347983096
516,1.792773087477467956038594416031
517,1.793168992147360575181601692476
518,1.793564257754351524487100174273
519,1.793958890463721231055889747966
520,1.794352896552185563197249166557
521,1.794746282414512037318645034724
522,1.795139054570541051930051904580
523,1.795531219672638582577983881282
