Eigenstate,Potential Energy
1,0.500000000035024419310321823165674411
2,0.64623093787973572704988643681932773
3,0.73633761037653130664754568827944894
4,0.79966527921301164002337921357618579
5,0.8480465777086446075501478573836267
6,0.8870660006195666149821603932860370
7,0.9197208293846376710428789601673759
8,0.9477838503811717697541745706086293
9,0.9723835626156667246492152168115316
10,0.9942802202368363402040148310465337
11,1.0140093933858192423005286382371756
12,1.0319621773673205564412027485852010
13,1.0484327022472091754247624271414146
14,1.0636476657086824350145264110019437
15,1.0777854488664528972531260695852638
16,1.090988921137194674953953943577204
17,1.103374273701048685569421919371707
18,1.115037270507822817449722025544431
19,1.126057771380970099292789727919049
20,1.136503069651525577446978832970898
21,1.146430398239803836813266443690995
22,1.155888840814139404600618356099300
23,1.164920809727411620232282117162621
24,1.173563203417466966146316368360306
25,1.181848323203045597901685508175642
26,1.189804607091369207684724900157114
27,1.197457222740716952787482155716536
28,1.204828550819465370575873663884966
29,1.211938582208040379304676542934447
30,1.218805246840741894370061497323194
31,1.225444687838463089174751682247502
32,1.231871491505426744814477284671967
33,1.238098881453413328494302389925034
34,1.244138883366409174311521011597578
35,1.250002465579408074267832964431450
36,1.255699659611620708779319562504117
37,1.261239663990261797411103841489361
38,1.266630934070666107409374737372100
39,1.271881260060635808079468772139451
40,1.276997835061100875511598584325011
41,1.281987314618423978435280622290529
42,1.286855869028688674480120493493338
43,1.291609229427823401207072835118566
44,1.296252728533319730773520349590666
45,1.300791336765733788102110026719033
46,1.305229694365023449833541968417100
47,1.309572140023297329015640087495605
48,1.313822736477965186236363441385385
49,1.317985293444616864015009438619945
50,1.32206338821483412761539181978245
51,1.32606038419867283297474772208355
52,1.32997944765320762814483932719029
53,1.33382356280608127609753185150204
54,1.33759554555543955529260873887356
55,1.34129805590415720189509749048977
56,1.34493360926618578740541164859017
57,1.34850458676565546034761611822753
58,1.35201324463456529437115256352305
59,1.35546172280214303784687842199052
60,1.35885205275793055233679792042034
61,1.36218616476108699981281801102245
62,1.36546589446010083338693866636348
63,1.36869298897985975729515529535080
64,1.37186911252671534195563488876577
65,1.37499585155664413994927877446138
66,1.37807471954675980971695654530942
67,1.38110716140616846244212874991015
68,1.38409455755840328677923913696350
69,1.38703822772436183536166783230088
70,1.38993943443174108875907465218833
71,1.39279938627436670882310114571989
72,1.39561924094251465098048282844755
73,1.39840010804327029862939786854381
74,1.40114305172815143424202550628183
75,1.40384909314359026067343124900888
76,1.40651921271842012942158013128389
77,1.40915435230121023416529151670234
78,1.41175541715912572972670625662009
79,1.41432327784894391661262986305528
80,1.41685877196991900564461972180785
81,1.41936270580733863571114655051820
82,1.42183585587485386712157296410150
83,1.42427897036297563925202802221708
84,1.42669277050050638945713660236003
85,1.42907795183511625404784431226241
86,1.43143518543875740674620832348092
87,1.43376511904315261922822817823872
88,1.43606837811017075062998485844906
89,1.43834556684151837073086473888314
90,1.44059726913183350479837369288575
91,1.44282404946894603602834288826284
92,1.44502645378478100397514251258459
93,1.44720501026011878231091574961880
94,1.44936023008618319051471133920361
95,1.45149260818580744006340800773015
96,1.45360262389672599357978333314061
97,1.45569074161935607328364751949714
98,1.45775741143125968079701982209492
99,1.45980306967032351816543273005623
100,1.46182813948854785954115408524020
101,1.46383303137820611881980120675516
102,1.46581814367201128380065458642275
103,1.46778386301881747382806339398417
104,1.46973056483627761316109383491182
105,1.47165861374178513856140610224543
106,1.47356836396293689534587982132013
107,1.47546015972867629419494666496034
108,1.47733433564219656145323773865020
109,1.47919121703661532212506863431995
110,1.48103112031436933464207222727265
111,1.48285435327121233528194188938515
112,1.48466121540564951648365362991615
113,1.48645199821458662751051686016298
114,1.48822698547592292815605500493498
115,1.48998645351877677768518253509367
116,1.49173067148198430955485693892631
117,1.49345990156147992945169549410966
118,1.49517439924712634307847059728485
119,1.49687441354952810640504784303194
120,1.49856018721733684886445262623717
121,1.50023195694551805273044543884750
122,1.50188995357503035878026275403399
123,1.50353440228433617541417113400149
124,1.50516552277314468859478456262776
125,1.50678352943875880370607157712393
126,1.50838863154538235313441599127461
127,1.50998103338672332548764696029559
128,1.51156093444220628517815835100505
129,1.51312852952709507785805357280502
130,1.51468400893680853532702351043682
131,1.51622755858569648941565181201107
132,1.51775936014052842714608651978988
133,1.51927959114893533788774742937362
134,1.52078842516303402726748740811697
135,1.52228603185844506425056226018107
136,1.52377257714891184027867679437968
137,1.52524822329671491140790244284654
138,1.52671312901906218239842180911670
139,1.52816744959063338580265692974288
140,1.52961133694244186312998315546424
141,1.53104493975717209767621301252518
142,1.53246840356114337533924821109361
143,1.53388187081304129957261469021125
144,1.53528548098955170699202642472613
145,1.53667937066802734239069086044606
146,1.53806367360630978316845027305662
147,1.53943852081982090021365354423156
148,1.54080404065603918424337827433069
149,1.54216035886646273853350734507987
150,1.54350759867616257889265879365848
151,1.54484588085102215511061813307607
152,1.54617532376275339302689751850496
153,1.54749604345177820688870694789602
154,1.54880815368805938121534768758950
155,1.55011176602995905813655619083306
156,1.55140698988120269654215007644683
157,1.55269393254601954962016232925005
158,1.55397269928253147885848647857292
159,1.5552433933544537773168084005102
160,1.5565061160811743396800513109210
161,1.5577609668862696751857884266957
162,1.5590080433445172244984418832044
163,1.5602474412274588338010609084466
164,1.5614792545475700226712715704093
165,1.5627035756010836459305386189232
166,1.5639204950095184650268185628169
167,1.5651301017599598612418372119801
168,1.5663324832441353796079234324143
169,1.5675277252963301655964768574821
170,1.5687159122301820376655375503250
171,1.5698971268743963900985359534293
172,1.5710714506074187927639660542587
173,1.5722389633911006900980651417414
174,1.5733997438033940427962417346047
175,1.5745538690701088971177900534360
176,1.5757014150957635881281730798016
177,1.5768424564935608373880293769903
178,1.5779770666145188994565929597536
179,1.5791053175757842021268809720811
180,1.5802272802881564267631190502558
181,1.5813430244828486772981351696508
182,1.5824526187375104332474894902278
183,1.5835561305015363359858590214954
184,1.5846536261206850497931280981867
185,1.5857451708610300057649612721040
186,1.5868308289322629971783240911710
187,1.5879106635103744267808732588511
188,1.5889847367597256422895287458205
189,1.5900531098545370911570640849459
190,1.5911158429998079456523269402173
191,1.5921729954516864207733852228691
192,1.5932246255373071671636378866035
193,1.5942707906741140428450119563020
194,1.5953115473886816045166905376246
195,1.5963469513350532507432161581605
196,1.5973770573126097088965532412737
197,1.5984019192834822411372355301884
198,1.5994215903895247313776388727822
199,1.6004361229688574870448486740204
200,1.6014455685719966958059531468811
201,1.6024499779775805136365324481772
202,1.6034494012077051603458216893254
203,1.6044438875428816772423349363440
204,1.6054334855366249618036500868377
205,1.6064182430296850446643059170411
206,1.6073982071639336276209677775361
207,1.6083734243959117532822511721710
208,1.6093439405100528277700652285896
209,1.6103098006315867393021849413990
210,1.6112710492391365682572298106191
211,1.6122277301770152476805895599584
212,1.6131798866672324013556989562265
213,1.6141275613212157373307597307713
214,1.6150707961512619725867260652367
215,1.6160096325817164950734861656659
216,1.6169441114598957175671137029472
217,1.6178742730667560823857782822910
218,1.6188001571273186894097269494105
219,1.6197218028208528203365309595964
220,1.6206392487908308672945233961810
221,1.6215525331546525680994234280835
222,1.6224616935131557455147858436469
223,1.6233667669599071113422681117192
224,1.6242677900902881946348333513338
225,1.6251647990103789505705011379681
226,1.6260578293456425879218405382933
227,1.6269469162494202579626598103318
228,1.6278320944112374150058929649678
229,1.6287133980649290007105267456369
230,1.6295908609965881383887971907951
231,1.6304645165523401265706200667354
232,1.6313343976459521407327807318324
233,1.6322005367662736286837057012713
234,1.6330629659845235456560578484948
235,1.6339217169614176001935225657158
236,1.6347768209541452095859642854229
237,1.6356283088231997849660959710526
238,1.6364762110390640770641100946485
239,1.6373205576887560181852050684900
240,1.6381613784822372138123248192324
241,1.6389987027586883651662502098142
242,1.6398325594926544786574989569594
243,1.6406629773000638929866724763780
244,1.6414899844441228121119920066296
245,1.6423136088410897171783431220303
246,1.6431338780659321759576527389719
247,1.6439508193578674315685007373743
248,1.6447644596257943510115095780490
249,1.6455748254536117020180998329642
250,1.6463819431054331423154372543354
251,1.6471858385306968207164818175885
252,1.6479865373691723879321407388231
253,1.6487840649558704887055820817956
254,1.6495784463258543915230554779907
255,1.6503697062189576353273120401354
256,1.6511578690844077779980977130321
257,1.6519429590853626373404567831931
258,1.6527250001033554686371784964085
259,1.6535040157426558816128487749676
260,1.6542800293345468825111225054258
261,1.6550530639415183543395735834996
262,1.6558231423613817000111185210722
263,1.6565902871313044982664892951480
264,1.6573545205317706225323142555256
265,1.6581158645904643472449799732134
266,1.6588743410860806086742226387611
267,1.6596299715520646327810096605452
268,1.6603827772802809631103030064721
269,1.6611327793246161579202727761619
270,1.6618799985045108799739248987541
271,1.6626244554084306622318947814886
272,1.6633661703972693282922052664249
273,1.6641051636076925099731719148090
274,1.6648414549554184703390540590088
275,1.6655750641384401070292006477344
276,1.6663060106401864135252848305696
277,1.6670343137326308816514448718003
278,1.6677599924793385992371360193877
279,1.6684830657384635453923972235085
280,1.6692035521656881762470770457940
281,1.6699214702171131899625921302247
282,1.6706368381520949672700249006787
283,1.6713496740360338999667198813631
284,1.6720599957431107638917116609717
285,1.6727678209589779436272793170705
286,1.6734731671834015336563562188890
287,1.6741760517328593752538492867119
288,1.6748764917430914308730308031241
289,1.6755745041716071440773522343141
290,1.6762701058001505175307406242869
291,1.6769633132371207499728538164177
292,1.6776541429199513170718855612766
293,1.6783426111174514019150922681928
294,1.6790287339321047120386609209002
295,1.6797125273023277701270131396075
296,1.6803940070046952639284369916570
297,1.6810731886561223870979993945726
298,1.6817500877160134877051184298923
299,1.6824247194883738272476128756564
300,1.6830970991238862007621574326557
301,1.6837672416219528294522500073941
302,1.6844351618327046187508448514938
303,1.6851008744589749549301759236570
304,1.6857643940582416177723827139948
305,1.6864257350445382378115791916888
306,1.6870849116903345613507797266307
307,1.6877419381283827052118473677302
308,1.6883968283535368796508916637225
309,1.6890495962245426687090933364271
310,1.6897002554657962031495702812234
311,1.6903488196690768208876935352665
312,1.6909953022952507280521327527876
313,1.6916397166759470534296019748522
314,1.6922820760152081005721153684580
315,1.6929223933911131172145583403843
316,1.6935606817573769576493127379049
317,1.6941969539449211766683957813445
318,1.6948312226634229063227725675772
319,1.6954635005028386570666141867738
320,1.6960937999349030445496325280844
321,1.6967221333146063609975197859071
322,1.6973485128816471056171610515073
323,1.6979729507618629880711027311375
324,1.6985954589686393821669576616934
325,1.6992160494042969917485300434016
326,1.6998347338614569660210077369295
327,1.7004515240243862850719098654793
328,1.7010664314703206047885821295767
329,1.7016794676707695360370731063233
330,1.7022906439928007897745637113468
331,1.7028999717003046266781491440981
332,1.7035074619552396725205110122418
333,1.7041131258188604778366655478789
334,1.7047169742529250058939334433420
335,1.7053190181208863638868502318937
336,1.7059192681890648353974271791651
337,1.7065177351278030863559423275111
338,1.7071144295126056033436367184727
339,1.7077093618252584287330111340324
340,1.7083025424549352839960450620391
341,1.7088939816992857947471182074329
342,1.7094836897655083146597941875632
343,1.7100716767714069860361694343753
344,1.7106579527464330307259275059924
345,1.7112425276327120907191769003266
346,1.7118254112860550931979805062346
347,1.7124066134769562053955220787140
348,1.7129861438915746909773738261100
349,1.7135640121327042128594859576745
350,1.7141402277207271247952690453608
351,1.7147148000945558393253615150082
352,1.7152877386125609544471555872638
353,1.7158590525534854233737945542259
354,1.7164287511173461818510525142299
355,1.7169968434263235983074789756469
356,1.7175633385256369566199662886581
357,1.7181282453844092105317450753392
358,1.7186915728965202537234193642213
359,1.7192533298814444506759001357582
360,1.7198135250850813662447453193943
361,1.7203721671805714388148528373507
362,1.7209292647691030786377857938519
363,1.7214848263807057869658735557597
364,1.7220388604750343199787388660289
365,1.7225913754421421338730224383253
366,1.7231423796032429887869764018694
367,1.7236918812114636035742276884352
368,1.7242398884525841501598783841669
369,1.7247864094457712200287847134574
370,1.7253314522442989760262628657591
371,1.7258750248362613427857133924932
372,1.7264171351452741922686429067504
373,1.7269577910311674911386192663825
374,1.7274970002906717184553826934768
375,1.7280347706580892452657280527109
376,1.7285711098059621323143897888521
377,1.7291060253457281350929959244980
378,1.7296395248283680836459498942465
379,1.7301716157450464769435807848905
380,1.7307023055277420485950177287162
381,1.7312316015498711793459074909984
382,1.7317595111269012745386548479507
383,1.7322860415169587812065721218660
384,1.7328111999214268085107770187241
385,1.7333349934855359727845400857170
386,1.7338574292989491258457390479813
387,1.7343785143963357159231391636535
388,1.7348982557579397180027426793083
389,1.7354166603101418082877371029892
390,1.7359337349260129718855123625143
391,1.7364494864258598606694818322401
392,1.7369639215777655096994305605168
393,1.7374770470981228856934032719755
394,1.7379888696521598486546595603373
395,1.7384993958544583835324516761198
396,1.7390086322694677527909274417406
397,1.7395165854120111998005277869361
398,1.7400232617477862111923596463705
399,1.7405286676938569039743622435377
400,1.7410328096191428373723688204375
401,1.7415356938449002983240603176106
402,1.7420373266451968058482713296879
403,1.7425377142473816550377852958709
404,1.7430368628325503937721784793236
405,1.7435347785360006976042118974686
406,1.7440314674476857518625666075765
407,1.7445269356126622576989883071907
408,1.7450211890315305652826386361417
409,1.7455142336608697952281317632471
410,1.7460060754136704627443154261237
411,1.7464967201597588645317622642718
412,1.7469861737262168110278925884770
413,1.7474744418977977830700908684588
414,1.7479615304173359368326763220786
415,1.7484474449861522410114996097674
416,1.7489321912644541759006520205614
417,1.7494157748717318428596668841226
418,1.7498982013871476474202716256615
419,1.7503794763499238345568258069819
420,1.7508596052597228580555008219067
421,1.7513385935770245361793333676528
422,1.7518164467234992752459056892881
423,1.7522931700823751972715206265322
424,1.7527687689988027854215931991366
425,1.7532432487802134266416950996930
426,1.7537166146966754583245014458702
427,1.7541888719812452036580764887736
428,1.7546600258303130093583862728968
429,1.7551300814039481981889603992071
430,1.7555990438262357983903716405889
431,1.7560669181856125536882105369477
432,1.7565337095351993634114528024810
433,1.7569994228931254906335962059458
434,1.7574640632428556362906881542769
435,1.7579276355335077029668708601415
436,1.7583901446801691493547783919417
437,1.7588515955642100967771225887210
438,1.7593119930335921698510552252657
439,1.7597713419031737526171636621236
440,1.7602296469550127313633882072769
441,1.7606869129386638840152609084322
442,1.7611431445714744797559938423984
443,1.7615983465388777365903092783482
444,1.7620525234946787562405821574455
445,1.7625056800613422670543865850801
446,1.7629578208302731992885597051419
447,1.7634089503620972619597080854002
448,1.7638590731869347394810307764296
449,1.7643081938046753486096512710848
450,1.7647563166852463081640063690102
451,1.7652034462688811246285163616057
452,1.7656495869663819350114287410608
453,1.7660947431593811500495718451451
454,1.7665389192005987867300315020140
455,1.7669821194140991140211422210944
456,1.7674243480955419088357867115003
457,1.7678656095124330179539501842872
458,1.7683059079043706218252536093102
459,1.7687452474832897141978605468704
460,1.7691836324337044399416003679018
461,1.7696210669129461408134346085493
462,1.7700575550514003222391932701226
463,1.7704931009527411449093546976547
464,1.7709277086941616021183881467667
465,1.7713613823266033516102681722920
466,1.7717941258749833326537836093786
467,1.7722259433384164488898029855793
468,1.7726568386904393326205839965277
469,1.7730868158792276672660281262835
470,1.7735158788278145925549825082791
471,1.7739440314343044595908306745888
472,1.7743712775720862334315974475768
473,1.7747976210900418941176096000998
474,1.7752230658127573401733178700371
475,1.7756476155407247173694880520279
476,1.7760712740505486865836332670900
477,1.7764940450951469637892287823996
478,1.7769159324039498081961715112677
479,1.7773369396830973479588907030541
480,1.7777570706156351380711681996279
481,1.7781763288617065013556874709549
482,1.7785947180587452213718384712593
483,1.7790122418216639672762568212267
484,1.7794289037430412704259036222762
485,1.7798447073933085296391578074880
486,1.7802596563209316299441926582480
487,1.7806737540525940236364837807194
488,1.7810870040933758701704931256651
489,1.7814994099269324630233548479672
490,1.7819109750156698066178543017605
491,1.7823217028009194775412201146208
492,1.7827315967031113582075975586564
493,1.7831406601219442179281543733840
494,1.7835488964365552353842264132908
495,1.7839563090056866549547270793975
496,1.7843629011678528212740351220032
497,1.7847686762415032774936370907213
498,1.7851736375251858724540158982242
499,1.7855777882977073740406397634283
500,1.785981131818293719145343467401
501,1.786383671326745646197243330064
502,1.786785410043597165361242868302
503,1.787186351170268334453085137038
504,1.787586497889220184322887476699
505,1.787985853364104641089677806298
506,1.788384420739915175227286490733
507,1.788782203143136025439553750332
508,1.789179203681889637195438494079
509,1.789575425446080546720226602894
510,1.789970871507541763586443752322
511,1.790365544920176882887918014689
512,1.790759448720101827098139674991
513,1.791152585925784833257087596293
514,1.791544959538185361860489042935
515,1.791936572540892301658954136105
516,1.792327427900259680673266970604
517,1.792717528565540958130404756167
518,1.793106877469023682678808368280
519,1.793495477526161298801288100591
520,1.793883331635704958405394568733
521,1.794270442679832132800064711421
522,1.794656813524276301241844937287
523,1.795042447018454153195004863333
