Eigenstate,Potential Energy
1,0.500000000059278269763322414016918146
2,0.64623093803805260335118351504393882
3,0.73633761084157608990625941880448232
4,0.79966528018165177026273725937668902
5,0.8480465793865384526891451357305071
6,0.8870660032159787302407806693760553
7,0.9197208331105292696513273995984481
8,0.9477838554484051145960439374480613
9,0.9723835692366358534414892792373271
10,0.9942802286242802723610391481440808
11,1.0140094037527210906303622691247492
12,1.0319621899268504154186804878499456
13,1.0484327172126908423755672913964949
14,1.0636476832935738479632682618334440
15,1.0777854692843348485740846866885351
16,1.090988944601764724288883828870487
17,1.103374300426118455635761332495258
18,1.115037300707317559350169926842096
19,1.126057805268929822050381800320664
20,1.136503107442107281877383674539716
21,1.146430440147284546050985817148507
22,1.155888887052919780656797864447538
23,1.164920860512020019415239636979667
24,1.173563258962563828597866445463049
25,1.181848383723428095444613676467816
26,1.189804672801976094289837018775680
27,1.197457293856633576183193744204928
28,1.204828627555928813725170754507831
29,1.211938664780444707900725785910036
30,1.218805335464643491978893335993352
31,1.225444782729586065742078986467393
32,1.231871592879668407340205542359682
33,1.238098989526849705032716185027598
34,1.244138998355300584268614727090018
35,1.250002587700204739376868138314499
36,1.255699789080968400240681875768869
37,1.261239801025007515555749336464226
38,1.266631078887863790940336925457859
39,1.271881412877552070503336941175788
40,1.276997996095220766821864974237408
41,1.281987484087456770474974958895573
42,1.286856047150573668709897247062668
43,1.291609416420735757850519206184094
44,1.296252924615676318514356700587261
45,1.300791542156199053676604459013231
46,1.305229909282515307002293838927035
47,1.309572364686993066516988366093439
48,1.313822971107307394423334729134015
49,1.317985538259319379962038423434329
50,1.32206364343488799855279503196518
51,1.32606065004435229797025401852116
52,1.32997972434507611800404815640192
53,1.33382385056499743150045691348730
54,1.33759584460256326322267691315069
55,1.34129836646095565045097670265206
56,1.34493393155443953911575424151466
57,1.34850492100746454413472089255074
58,1.35201359105235531633250968106191
59,1.35546208161867131104360317964293
60,1.35885242419629224579591881480035
61,1.36218654904472130696623727055040
62,1.36546629181279716018418963775481
63,1.36869339962576393023976081325854
64,1.37186953669033583632640849053388
65,1.37499628946285832847839279927853
66,1.37807517142082023200601800477812
67,1.38110762747370911540617914337908
68,1.38409503804544593641658279673920
69,1.38703872285732235015480999062095
70,1.38993994443743579501870177657362
71,1.39279991138001876829358229108319
72,1.39561978137576046103108428716257
73,1.39840066403216591536111999146698
74,1.40114362350117901884515116524618
75,1.40384968092966454937588903877304
76,1.40651981674689492737290697939219
77,1.40915497280188493360559019655917
78,1.41175605436225185279430402864378
79,1.41432393198523168314838261940417
80,1.41685944327054392635475979800785
81,1.41936339450394813105466644253460
82,1.42183656219957391229187430208046
83,1.42427969454841743562636174900457
84,1.42669351277977306289102660130409
85,1.42907871244180958039533228469285
86,1.43143596460698456499029163937779
87,1.43376591700753297260942828271599
88,1.43606919510584265616446873350853
89,1.43834640310414601751299025539814
90,1.44059812489761378148596601689000
91,1.44282492497461542791252412381368
92,1.44502734926762252003986465565218
93,1.44720592595796891269082329372801
94,1.44936116623743889476338749226003
95,1.45149356502943316664748576507135
96,1.45360360167226073101779426783317
97,1.45569174056692043335206667662504
98,1.45775843179156301422924164945786
99,1.45980411168467106327311987993995
100,1.46182920339884792419073037333261
101,1.46383411742697729620052879428119
102,1.46581925210238970242423071393477
103,1.46778499407456408220318573791771
104,1.46973171876178549959035282437941
105,1.47165979078208688651119166426029
106,1.47356956436371197484390705296623
107,1.47546138373625848971353788711496
108,1.47733558350358143674052855504390
109,1.47919248899946772244987449856395
110,1.48103241662703092692213832418182
111,1.48285567418270918656911721506746
112,1.48466256116569971128351564089028
113,1.48645336907360792441796344923532
114,1.48822838168504045629235812004201
115,1.48998787532983077342609375615354
116,1.49173211914753789404348493057136
117,1.49346137533482692739414455544604
118,1.49517589938229914332420482066665
119,1.49687594030130556481849191787125
120,1.49856174084125223399857700588814
121,1.50023353769786703481740064878672
122,1.50189156171287904255868655864654
123,1.50353603806552917731714735842448
124,1.50516718645631325882712921384954
125,1.50678522128332899374418810124463
126,1.50839035181158322918661537344363
127,1.50998278233559522845749752625434
128,1.51156271233560913767840240472051
129,1.51313033662771673882733554143161
130,1.51468584550817320280659411785316
131,1.51622942489217315204825244126686
132,1.51776125644733936496435436320337
133,1.51928151772216467296433872967731
134,1.52079038226963632480450943084688
135,1.52228801976625398469118700815515
136,1.52377459612664884302888972195773
137,1.52525027361399801076194532479038
138,1.52671521094641475626688814609883
139,1.52816956339949303784771674244841
140,1.52961348290516933891777279643956
141,1.53104711814706025546218667528625
142,1.53247061465242621210798098163667
143,1.53388411488090303295937896023772
144,1.53528775831013591371945003935631
145,1.53668168151844615385962392445321
146,1.53806601826465313884838140540139
147,1.53944089956516585948412091987663
148,1.54080645376845929734396531431633
149,1.54216280662703747728643593444997
150,1.54351008136698682786819824114626
151,1.54484839875521576391234971473277
152,1.54617787716447079038002004498662
153,1.54749863263621807722147019228310
154,1.54881077894147440443033463796483
155,1.55011442763966571327533975049049
156,1.55140968813559113005402079273147
157,1.55269666773456350895217084275099
158,1.55397547169579831209154913601930
159,1.5552462032841144995795501528934
160,1.5565089638200137670795194735507
161,1.5577638527281966270014792118651
162,1.5590109675845747943935518246708
163,1.5602504041618347308124474919225
164,1.5614822564736069827473186538909
165,1.5627066168172899147940417651663
166,1.5639235758155783531475335379006
167,1.5651332224567443717116159361801
168,1.5663356441337129097195259218397
169,1.5675309266819772829349460127382
170,1.5687191544163943315298651440959
171,1.5699004101668993990793476984209
172,1.5710747753131790093117450704574
173,1.5722423298183366429249034974567
174,1.5734031522615874579630628613870
175,1.5745573198700159386676417733437
176,1.5757049085494261791354823435014
177,1.5768459929143180623025422230457
178,1.5779806463170184886301054972355
179,1.5791089408759940994202907459443
180,1.5802309475033764411406929639982
181,1.5813467359317222193255694610256
182,1.5824563747400363374200804041162
183,1.5835599313790807698229626173983
184,1.5846574721959935106451335653932
185,1.5857490624582394062891891092967
186,1.5868347663769138404503798766994
187,1.5879146471294230720185094534975
188,1.5889887668815566621766973237642
189,1.5900571868089757217663903434421
190,1.5911199671181326299752332469509
191,1.5921771670666414468779713119331
192,1.5932288449831154020115883510876
193,1.5942750582864897628100932610059
194,1.5953158635048434236589581519888
195,1.5963513162937371479043654683928
196,1.5973814714540821546939197998454
197,1.5984063829495534259457535482563
198,1.5994261039235618954008503844925
199,1.6004406867157983535889021113024
200,1.6014501828783630088823228646135
201,1.6024546431914916810321135159599
202,1.6034541176788920033117430315300
203,1.6044486556227002879656463684416
204,1.6054383055780706698392813636130
205,1.6064231153874064935177503706087
206,1.6074031321942469626858516062169
207,1.6083784024568149223504712521250
208,1.6093489719612399953457675774319
209,1.6103148858344628159655102923004
210,1.6112761885568318563370659958909
211,1.6122329239744002045107936894215
212,1.6131851353109325214032611801893
213,1.6141328651796265544997243958218
214,1.6150761555945641840159447190920
215,1.6160150479818912077622188270011
216,1.6169495831907398191775726631266
217,1.6178798015038977375873973369869
218,1.6188057426482329631454327060526
219,1.6197274458048774294082972699488
220,1.6206449496191820616806868630984
221,1.6215582922104411434333166024325
222,1.6224675111814031881711835117112
223,1.6233726436275618775944264625927
224,1.6242737261462421253628461334997
225,1.6251707948454838230188555376256
226,1.6260638853527268060214957858390
227,1.6269530328233056827513643715634
228,1.6278382719487563366983054290058
229,1.6287196369649412539885933493967
230,1.6295971616599983625008097271501
231,1.6304708793821151718472599759515
232,1.6313408230471386231468206951094
233,1.6322070251460156341002654511000
234,1.6330695177520804854396874632671
235,1.6339283325281822198585936991091
236,1.6347835007336617521971169084014
237,1.6356350532311823110162698494384
238,1.6364830204934149425784270295247
239,1.6373274326095845128203080426554
240,1.6381683192918783607425577821677
241,1.6390057098817218845694355743833
242,1.6398396333559239166352273839645
243,1.6406701183326959177772576752607
244,1.6414971930775466794758452968131
245,1.6423208855090569068598130951309
246,1.6431412232045362011497998487104
247,1.6439582334055638233319330949283
248,1.6447719430234208196216913379660
249,1.6455823786444084772409765315025
250,1.6463895665350634946349838230324
251,1.6471935326472677655639327467760
252,1.6479943026232555749915752965559
253,1.6487919018005232783965692117808
254,1.6495863552166411207876031834056
255,1.6503776876139710748749480363670
256,1.6511659234442907831897620988026
257,1.6519510868733299949196572950043
258,1.6527332017852159415444012950480
259,1.6535122917868344541477647852780
260,1.6542883802121072081356983732317
261,1.6550614901261854084441805315343
262,1.6558316443295646399957997246073
263,1.6565988653621197333184917644970
264,1.6573631755070650955125712077860
265,1.6581245967948390311262269710410
266,1.6588831510069142200052822757852
267,1.6596388596795375646828825919499
268,1.6603917441073994403430209630206
269,1.6611418253472366165911672666143
270,1.6618891242213645744918044729827
271,1.6626336613211485021448343618369
272,1.6633754570104069476813846721868
273,1.6641145314287555721098426710588
274,1.6648509044948882103466692690800
275,1.6655845959097991153284560998523
276,1.6663156251599446628768448689926
277,1.6670440115203520006470467233502
278,1.6677697740576663951278176796945
279,1.6684929316331487791804609309145
280,1.6692135029056155930068017209096
281,1.6699315063343288073940322469336
282,1.6706469601818336255297631387943
283,1.6713598825167470758598997302584
284,1.6720702912164946525507333750510
285,1.6727782039700018108440479659565
286,1.6734836382803363420770078923570
287,1.6741866114673066876880129189897
288,1.6748871406700125940131293317929
289,1.6755852428493527559673791774041
290,1.6762809347904901821692403240865
291,1.6769742331052731224802672918851
292,1.6776651542346144428982938942420
293,1.6783537144508333536119643959153
294,1.6790399298599545271655883011155
295,1.6797238164039666939129266956466
296,1.6804053898630483003558991102908
297,1.6810846658577501621294065622612
298,1.6817616598511444284200792819216
299,1.6824363871509366607126593009253
300,1.6831088629115427765058032096586
301,1.6837791021361312694722421039479
302,1.6844471196786327990338650637578
303,1.6851129302457143225194836265178
304,1.6857765483987213474746172206652
305,1.6864379885555897326899576647898
306,1.6870972649927263012103800535691
307,1.6877543918468554473405452135020
308,1.6884093831168392161384473243709
309,1.6890622526654669447284886715510
310,1.6897130142212148006442235039543
311,1.6903616813799788121718693861598
312,1.6910082676067789038944787973152
313,1.6916527862374353302537368948016
314,1.6922952504802193114740625191118
315,1.6929356734174771915626895498074
316,1.6935740680072294941001017463859
317,1.6942104470847424144995988709127
318,1.6948448233640771000556102066117
319,1.6954772094396138594184897759611
320,1.6961076177875513028317916441444
321,1.6967360607673843321442466779330
322,1.6973625506233570951081030012839
323,1.6979870994858944180827433086363
324,1.6986097193730106943672674689339
325,1.6992304221916979902254555001049
326,1.6998492197392916059157842008304
327,1.7004661237048159125680029175947
328,1.7010811456703076541890581353761
329,1.7016942971121216897467517451420
330,1.7023055894022156070874801940712
331,1.7029150338094146473571888306580
332,1.7035226415006580012432135000948
333,1.7041284235422268556702366247666
334,1.7047323909009523750531360180568
335,1.7053345544454079321194261954474
336,1.7059349249470816464364996503292
337,1.7065335130815321029729020846279
338,1.7071303294295283096314346925713
339,1.7077253844781699583488902216380
340,1.7083186886219940811915920329941
341,1.7089102521640638151161513156894
342,1.7095000853170417726371304229228
343,1.7100881982042476562857791384719
344,1.7106746008607001106632397581699
345,1.7112593032341446315218824307557
346,1.7118423151860650067696526659591
347,1.7124236464926818548585852139669
348,1.7130033068459350723867460754336
349,1.7135813058544537359446225205312
350,1.7141576530445110006561697088533
351,1.7147323578609660831288574918283
352,1.7153054296681930112919359639338
353,1.7158768777509954256177302361241
354,1.7164467113155088463207350735562
355,1.7170149394900907719388349983000
356,1.7175815713261968192100042999318
357,1.7181466157992461434157066299153
358,1.7187100818094753833260551325272
359,1.7192719781827768760253409934753
360,1.7198323136715300796769972347099
361,1.7203910969554179492405321918438
362,1.7209483366422347468887936263922
363,1.7215040412686798828871705700126
364,1.7220582193011428110813698100411
365,1.7226108791364772155194137266149
366,1.7231620291027633660341379315844
367,1.7237116774600615349601040851282
368,1.7242598324011532638811672339502
369,1.7248065020522751131219840500768
370,1.7253516944738406073320019315192
371,1.7258954176611532306476451500059
372,1.7264376795451094280921855508828
373,1.7269784879928915801108809587758
374,1.7275178508086552589096857468853
375,1.7280557757342014583560455220490
376,1.7285922704496452538520666568361
377,1.7291273425740726815910429501781
378,1.7296609996661890048054254450818
379,1.7301932492249602070197208806820
380,1.7307240986902444692758024080382
381,1.7312535554434165069847885303963
382,1.7317816268079818847905462536171
383,1.7323083200501859843273548604156
384,1.7328336423796125887985558154630
385,1.7333576009497757058601888856937
386,1.7338802028587052876952134328118
387,1.7344014551495225978522585511177
388,1.7349213648110091618882205046001
389,1.7354399387781699767460118319626
390,1.7359571839327881682217577064550
391,1.7364731071039714137165733189907
392,1.7369877150686937389050338868366
393,1.7375010145523301620746589673086
394,1.7380130122291827674925932894129
395,1.7385237147230010649508811636465
396,1.7390331286074962866312374253647
397,1.7395412604068492514799460474569
398,1.7400481165962118055165322849662
399,1.7405537036022004041578517840995
400,1.7410580278033861368159617328826
401,1.7415610955307772429930118188237
402,1.7420629130682948654012531608751
403,1.7425634866532448611623346639552
404,1.7430628224767835644999120391152
405,1.7435609266843749667007048164001
406,1.7440578053762454227126982903379
407,1.7445534646078330014428290525204
408,1.7450479103902289832997635053349
409,1.7455411486906143664124924785373
410,1.7460331854326938963670033717532
411,1.7465240264971218798508323507300
412,1.7470136777219233651722054630475
413,1.7475021449029117690983142361254
414,1.7479894337940993742541900046642
415,1.7484755501081049814443950777556
416,1.7489604995165551469412293463359
417,1.7494442876504818536434848959576
418,1.7499269201007137797713891279343
419,1.7504084024182654440426922268083
420,1.7508887401147192096977084389075
421,1.7513679386626041000099416543487
422,1.7518460034957707073480286134649
423,1.7523229400097600324015011152090
424,1.7527987535621698677793016083068
425,1.7532734494730151058286846773119
426,1.7537470330250855780201395686734
427,1.7542195094642989110396703512476
428,1.7546908840000484137980029412157
429,1.7551611618055499082779343605200
430,1.7556303480181803668707472280465
431,1.7560984477398158604084232415687
432,1.7565654660371659669760180719504
433,1.7570314079420999799773413498809
434,1.7574962784519760139822375360837
435,1.7579600825299608326315150673109
436,1.7584228251053483002050662511260
437,1.7588845110738746188499286720576
438,1.7593451452980293341755773075840
439,1.7598047326073627911698075222650
440,1.7602632777987911123232570710892
441,1.7607207856368958584903813061670
442,1.7611772608542219368349118836959
443,1.7616327081515734042633692275743
444,1.7620871321983017864425068497363
445,1.7625405376325962438054479648072
446,1.7629929290617666096458875767175
447,1.7634443110625264702500972483381
448,1.7638946881812695060520248031860
449,1.7643440649343469351269766036215
450,1.7647924458083382122869976905390
451,1.7652398352603224877176264017815
452,1.7656862377181436673607230694264
453,1.7661316575806748189994232000051
454,1.7665760992180783138882789673337
455,1.7670195669720653287231754662854
456,1.7674620651561500058868852418062
457,1.7679035980559029686375194113018
458,1.7683441699292005881163134381780
459,1.7687837850064725171023444963628
460,1.7692224474909471338841079070538
461,1.7696601615588927470180034707705
462,1.7700969313598577750977207864915
463,1.7705327610169085064013399078395
464,1.7709676546268626004395819117239
465,1.7714016162605223012905223894083
466,1.7718346499629044945890521677968
467,1.7722667597534668898820068503536
468,1.7726979496263353452221252635614
469,1.7731282235505248119474258933884
470,1.7735575854701614254724505709535
471,1.7739860393047000105088989186310
472,1.7744135889491412996732487429188
473,1.7748402382742442177553806726851
474,1.7752659911267407370498368040477
475,1.7756908513295422279445181415590
476,1.7761148226819498200400080899376
477,1.7765379089598591083103416929384
478,1.7769601139159638818289182903412
479,1.7773814412799577660262365346594
480,1.7778018947587341746742586106614
481,1.7782214780365831241266711904847
482,1.7786401947753884802943006918731
483,1.7790580486148210200870240098992
484,1.7794750431725301288476149992058
485,1.7798911820443356124748175535202
486,1.7803064688044142108831208273001
487,1.7807209070054876634914463676533
488,1.7811345001790069251718979308756
489,1.7815472518353357627591732845913
490,1.7819591654639315972101295436322
491,1.7823702445335257277062830029796
492,1.7827804924923015279527783496383
493,1.7831899127680705917933233937617
494,1.7835985087684479243491353413164
495,1.7840062838810243733965903770274
496,1.7844132414735395476824121846945
497,1.7848193848940509100292797561309
498,1.7852247174711029928789224147209
499,1.7856292425138942360430760321312
500,1.786032963312443579651575782904
501,1.786435883137752560888143777124
502,1.786838005241970372306180095448
503,1.787239332858553352536741973209
504,1.787639869202426755978433996767
505,1.788039617470141651752073259866
506,1.788438580840032684906816825007
507,1.788836762472374550870667822289
508,1.789234165509536826153525153849
509,1.789630793076135389318629432050
510,1.790026648279186488666163647956
511,1.790421734208256691000720896520
512,1.790816053935612615062218551642
513,1.791209610516369068831058307782
514,1.791602406988636270742672972735
515,1.791994446373666532783383199255
516,1.792385731675998619622399964411
517,1.792776265883600862457870358738
518,1.793166051968014816993659285973
519,1.793555092884496251645755656410
520,1.793943391572156327244541619225
521,1.794330950954099767848639554531
522,1.794717773937564303373299881531
523,1.795103863414057825826905329497
