Eigenstate,Potential Energy
1,0.500000000533146002513022005498055521
2,0.64623094113127506914582581600426792
3,0.73633761992794506250029650548693925
4,0.79966529910831294921120056648435778
5,0.8480466121731372556959032802073886
6,0.8870660539536180717556934002797424
7,0.9197209059247182941054588454903561
8,0.9477839544837719990495332202296499
9,0.9723836986499707467526707399625175
10,0.9942803925811440703981876572433374
11,1.0140096064257331885622330713886164
12,1.0319624354948323922146177640145460
13,1.0484330098602764762886216470241389
14,1.0636480272110878716486004083424314
15,1.0777858686678342018266039407524785
16,1.090989403653182257961461085921515
17,1.103374823353473662426538575376385
18,1.115037891724972643079421247580267
19,1.126058468597877391593347735887068
20,1.136503847310280751045772949824760
21,1.146431260789885295183165818606008
22,1.155889792712757032706999938844297
23,1.164921855439860623718276231846357
24,1.173564347417489974952954436486927
25,1.181849569973201547264315133688770
26,1.189805961123407923165664780584474
27,1.197458688535958658591971910664057
28,1.204830132889184550590026510988642
29,1.211940285073853573503132043815738
30,1.218807075034999126437041113306829
31,1.225446645904642705884696427059239
32,1.231873583998533511863670967772003
33,1.238101112940379676611197456176695
34,1.244141258426499527527539284960360
35,1.250004988804626222018328460730388
36,1.255702335607120207064926575426434
37,1.261242497374759403080900328690378
38,1.266633929476858264832742406356468
39,1.271884422135618219881925797527212
40,1.277001168466791199284243989828473
41,1.281990824031987699860121898406587
42,1.286859559142968214509610903412915
43,1.291613104951770521074436822228030
44,1.296256794192431303908873834199901
45,1.300795597302491012659558453556003
46,1.305234154539334579630768533999717
47,1.309576804612944004355459548358024
48,1.313827610279052449406851568205285
49,1.317990381272026947317110431723383
50,1.32206869490268410460123970510938
51,1.32606591460077622624173846999540
52,1.32998520664354006955429817954957
53,1.33382955527925031770441936174239
54,1.33760177642715873161020873656722
55,1.34130453011172444639371776223694
56,1.34494033176896630837671317259081
57,1.34851156254556918346948354755385
58,1.35202047869657898149759194462838
59,1.35546922017476719372690369957814
60,1.35885981849372123315319937952925
61,1.36219420393715263962803279824853
62,1.36547421217861420679929301755332
63,1.36870159036857519884690767069093
64,1.37187800273949134510342655788715
65,1.37500503577397146071313624879614
66,1.37808420297629520246471503191214
67,1.38111694928327417765252609085403
68,1.38410465514669246305857137462249
69,1.38704864031624992047316806581116
70,1.38995016734900342695596683607761
71,1.39281044486870243437213501500457
72,1.39563063059611703040956247010928
73,1.39841183416940366694971211262866
74,1.40115511977173487316968712164263
75,1.40386150858178816972319172889598
76,1.40653198106123984365747134253023
77,1.40916747909210684538325542127169
78,1.41176890797561427090591501361434
79,1.41433713830321907261385566188943
80,1.41687300770948251635328283672100
81,1.41937732251563456112934479358629
82,1.42185085927191188730150807125616
83,1.42429436620606256544223607314931
84,1.42670856458478606640205864056685
85,1.42909414999431803704525852845950
86,1.43145179354585340082580437410692
87,1.43378214301104387167633304320286
88,1.43608582389238259204662866079446
89,1.43836344043290510387376337974981
90,1.44061557656929264464577983020252
91,1.44284279683214230878247715342431
92,1.44504564719688031713163141722674
93,1.44722465588853238244415876784222
94,1.44938033414332223007457796986028
95,1.45151317692984817925120555141133
96,1.45362366363238586827181237028867
97,1.45571225869868086500860037309646
98,1.45777941225442202994382987811476
99,1.45982556068643302691367781584027
100,1.46185112719647303646824019008992
101,1.46385652232740842274781714924154
102,1.46584214446339153021320816149463
103,1.46780838030557487311085937392253
104,1.46975560532478171601280906230824
105,1.47168418419246097017662856158199
106,1.47359447119116356640779864979255
107,1.47548681060569938332826463254453
108,1.47736153709605457058486971135033
109,1.47921897605308051319241156153025
110,1.48105944393790326327370727556406
111,1.48288324860593640446426751561991
112,1.48469068961633088082841415076220
113,1.48648205852763978655075062516119
114,1.48825763918042735513725202181246
115,1.49001770796751093858495051198709
116,1.49176253409247643556928725257642
117,1.49349237981707591493382021995269
118,1.49520750069807514991811315647232
119,1.49690814581408506509749663119353
120,1.49859455798288525604748030877501
121,1.50026697396970947477614321233415
122,1.50192562468694406112195153879316
123,1.50357073538565810767764879215939
124,1.50520252583936646629695019644064
125,1.50682121052039713829674993708266
126,1.50842699876921939348870128931357
127,1.51002009495706838563099029880225
128,1.51160069864217944504488573259029
129,1.51316900471993315626128388889450
130,1.51472520356719394706773303450861
131,1.51626948118110951159315242883822
132,1.51780201931262341326062731115814
133,1.51932299559494143226259502436709
134,1.52083258366718094668474062608717
135,1.52233095329341452849390362052177
136,1.52381827047731524852822735280656
137,1.52529469757259787715964228496753
138,1.52676039338943655578477644492882
139,1.52821551329703740890003433353022
140,1.52966020932252912107261822149993
141,1.53109463024632994615084941340405
142,1.53251892169414154336836701007026
143,1.53393322622571138538477383907482
144,1.53533768342049830427094570408061
145,1.53673242996037155430725422168289
146,1.53811759970946590234956644928177
147,1.53949332379130705421190486297001
148,1.54085973066332276816875922519558
149,1.54221694618884147931941898763886
150,1.54356509370668209920592232152503
151,1.54490429409843092923352266415471
152,1.54623466585349601212586772976284
153,1.54755632513202789701142399102530
154,1.54886938582579074412205549743853
155,1.55017395961706203272518620203823
156,1.55147015603563876719116577033883
157,1.55275808251402125728434231987846
158,1.55403784444084632125740768148557
159,1.5553095452126336160674848189536
160,1.5565732862839114648136278747575
161,1.5578291672157807111621519204754
162,1.5590772857229760966595925902101
163,1.5603177377194800502073183175508
164,1.5615506173627435635136667394389
165,1.5627760170965627912264931420908
166,1.5639940276926619311588310674221
167,1.5652047382910296581256243963413
168,1.5664082364390518429510176562576
169,1.5676046081294856628564508222329
170,1.5687939378373148920344054910468
171,1.5699763085555266141558856535214
172,1.5711518018298472724417349641824
173,1.5723204977924735103410598879750
174,1.5734824751948336988642876705232
175,1.5746378114394141899141204837510
176,1.5757865826106800583526561749810
177,1.5769288635051236517690054529534
178,1.5780647276604701628967148197214
179,1.5791942473840667324005988680944
180,1.5803174937804860935161480132142
181,1.5814345367783674746095950467785
182,1.5825454451565225250366355951192
183,1.5836502865693293861815978138702
184,1.5847491275714392245345471384236
185,1.5858420336418171130897756350910
186,1.5869290692071383108050468237425
187,1.5880102976645638248286027161679
188,1.5890857814039107792166502043292
189,1.5901555818292414120334423276351
190,1.5912197593798864461612887769748
191,1.5922783735509221543324715339838
192,1.5933314829131176023224170676390
193,1.5943791451323704799063463383110
194,1.5954214169886449702509089923566
195,1.5964583543944297043485449726331
196,1.5974900124127296112019628097702
197,1.5985164452746061626084773067434
198,1.5995377063962803030346330682590
199,1.6005538483958110321403837467409
200,1.6015649231093637192660816635980
201,1.6025709816070792711131948802797
202,1.6035720742085576795183556792191
203,1.6045682504979667609999588508923
204,1.6055595593387878664653575443714
205,1.6065460488882086967041305078321
206,1.6075277666111764198540324804364
207,1.6085047592941171464032066819433
208,1.6094770730583361759112603612010
209,1.6104447533731049592941059703461
210,1.6114078450684464818555046518042
211,1.6123663923476266446842885532973
212,1.6133204387993620996207607652645
213,1.6142700274097491537524184150544
214,1.6152152005739289675756969329502
215,1.6161560001074885124843594535802
216,1.6170924672576115129414875790903
217,1.6180246427139836153641866486246
218,1.6189525666194610518480651194731
219,1.6198762785805063806530083628497
220,1.6207958176774041346100059469455
221,1.6217112224742546174691307609939
222,1.6226225310287633988256107400090
223,1.6235297809018204379969502009322
224,1.6244330091668842828827722406960
225,1.6253322524191743051443010435455
226,1.6262275467846749334615509550736
227,1.6271189279289609715831237191587
228,1.6280064310658462763731075037766
229,1.6288900909658634352426742781259
230,1.6297699419645796399689575808351
231,1.6306460179707510816314433008902
232,1.6315183524743268372677578207285
233,1.6323869785542978229151565751945
234,1.6332519288864075774678006947784
235,1.6341132357507186975214473493144
236,1.6349709310390453035796600167400
237,1.6358250462622558736687274806259
238,1.6366756125574489276350288014004
239,1.6375226606950077883639935982741
240,1.6383662210855374046600596759019
241,1.6392063237866883914624101412340
242,1.6400429985098720632208972169894
243,1.6408762746268714593717777353506
244,1.6417061811763510694010653508159
245,1.6425327468702707040982166171410
246,1.6433560001002071625604886581723
247,1.6441759689435862686766681194806
248,1.6449926811698341143660464169485
249,1.6458061642464438035403434690166
250,1.6466164453449694793705006999679
251,1.6474235513469470103664030420049
252,1.6482275088497456917539830635089
253,1.6490283441723576801046796132014
254,1.6498260833611265572032556792178
255,1.6506207521954207417181919059696
256,1.6514123761932537784898093529191
257,1.6522009806168599540108913493310
258,1.6529865904782238603108679895801
259,1.6537692305445730165271814007184
260,1.6545489253438363772003803091185
261,1.6553256991700716298396949145952
262,1.6560995760888687521150735895623
263,1.6568705799427315910353631378270
264,1.6576387343564460051420549158635
265,1.6584040627424363759967011923438
266,1.6591665883061161420337208888591
267,1.6599263340512392721545205759521
268,1.6606833227852566513660128570084
269,1.6614375771246858383098153820330
270,1.6621891195004943784727142138084
271,1.6629379721635107060491139784340
272,1.6636841571898616740069491705489
273,1.6644276964864495494756234559790
274,1.6651686117964714367417335617401
275,1.6659069247049911432591073864037
276,1.6666426566445683229905926384041
277,1.6673758289009593854527226922750
278,1.6681064626188894127577198456693
279,1.6688345788079145969488745811401
280,1.6695601983483758631108556170525
281,1.6702833419974607477518841525317
282,1.6710040303953808666186615549553
283,1.6717222840716787332391468618532
284,1.6724381234516724032671217586413
285,1.6731515688630569041790846642084
286,1.6738626405426715313055742823186
287,1.6745713586434521065255491208407
288,1.6752777432415797033225001751828
289,1.6759818143438467455230532546310
290,1.6766835918952587300561703814805
291,1.6773830957868883025358564174588
292,1.6780803458640049508534199326892
293,1.6787753619345062301465269165120
294,1.6794681637776693395617443581729
295,1.6801587711532508611768078813270
296,1.6808472038109700906609661275838
297,1.6815334815003960560989708262279
298,1.6822176239812802485329226467179
299,1.6828996510343673611249038931150
300,1.6835795824727243406045702051404
301,1.6842574381536300763683208630940
302,1.6849332379910734304085731261918
303,1.6856070019689064610107252749339
304,1.6862787501547105828521269902069
305,1.6869485027144362066088694344552
306,1.6876162799278797030545033558103
307,1.6882821022050655024145135217408
308,1.6889459901036181317687035054826
309,1.6896079643472050276140570191845
310,1.6902680458451434468930549055260
311,1.6909262557132772189623530821553
312,1.6915826152962331931449197708462
313,1.6922371461911824774480861345592
314,1.6928898702732446550280025193939
315,1.6935408097226848517336750085987
316,1.6941899870540714456161384266155
317,1.6948374251475761527547695448175
318,1.6954831472826259988376512624494
319,1.6961271771741309237147968539701
320,1.6967695390115389098516438875628
321,1.6974102575010029692032954909095
322,1.6980493579109687590350746066144
323,1.6986868661215354993427963540181
324,1.6993228086779797329704005850690
325,1.6999572128488813089326018839675
326,1.7005901066893410240367415457414
327,1.7012215191098450735464269257081
328,1.7018514799513957238432709829099
329,1.7024800200676154889097605259017
330,1.7031071714146155105080128986657
331,1.7037329671495296913768160272440
332,1.7043574417387378614369861482328
333,1.7049806310769417923526557026679
334,1.7056025726184194139047988864760
335,1.7062233055219790521749526573631
336,1.7068428708113491163362905852035
337,1.7074613115530048183599614497374
338,1.7080786730537357410978731188717
339,1.7086950030806106093187289136114
340,1.7093103521064274095686361148765
341,1.7099247735842257978789543968395
342,1.7105383242550383252770387508946
343,1.7111510644937606745609974032307
344,1.7117630586988666427858333310189
345,1.7123743757327104193491277769677
346,1.7129850894203782230229242705913
347,1.7135952791165394230212332639810
348,1.7142050303515430138495575451855
349,1.7148144355702146050625776789348
350,1.7154235949795076510974689173859
351,1.7160326175245052316945419094369
352,1.7166416220164084229745485094399
353,1.7172507384413160606481452558972
354,1.7178601094850923501629344443049
355,1.7184698923178164988720120606234
356,1.7190802606917340263853874911419
357,1.7196914074199910742942150892953
358,1.7203035473206664024677767811626
359,1.7209169207330362882787907009621
360,1.7215317977424414084774467089848
361,1.7221484832890603160585599377604
362,1.7227673233879858837750455043168
363,1.7233887127583425131418858261462
364,1.7240131042553082411008826043812
365,1.7246410206318101333498943600007
366,1.7252730693428759633442257200724
367,1.7259099613702565538739887372742
368,1.7265525354268540226860832658716
369,1.7272017894611326820093613638072
370,1.7278589222200889925049149172052
371,1.7285253889091832907927279320234
372,1.7292029769862813133616985754718
373,1.7298939113282897105618979417164
374,1.7306010032866305983238297350933
375,1.7313278671332065399741034048096
376,1.7320792432743461047875450347044
377,1.7328614968846591164839009662136
378,1.7336834173584453916839832480751
379,1.7345575606841171856357652830706
380,1.7355026346686870691988674328338
381,1.7365480490613399895794133807839
382,1.7377434320798427379378548329357
383,1.7391811744839290135374016718730
384,1.7410603531264916819368831285348
385,1.7439285126157898293894138155893
386,1.7503039559808666107266854293249
