Eigenstate,Potential Energy
1,0.500000000043395900370432560334697810
2,0.64623093793438047761698345726616175
3,0.73633761053704623935977204510410409
4,0.79966527954734702158395805682992353
5,0.8480465782877843446745853556655560
6,0.8870660015157384626441475683918673
7,0.9197208306706539154050218679415515
8,0.9477838521301543928259089053192788
9,0.9723835649009197223832348556514361
10,0.9942802231317810259058353625337856
11,1.0140093969639592007932670396210944
12,1.0319621817022217079490811879038359
13,1.0484327074124880653880904813878181
14,1.0636476717779992580869239403628182
15,1.0777854559135073774902180370889420
16,1.090988929235723740274274559185117
17,1.103374282924825309524941964222448
18,1.115037280930655643986587621112859
19,1.126057783076703607047070147120417
20,1.136503082694040624818044264465418
21,1.146430412703018481592320263653297
22,1.155888856772009925433335607037913
23,1.164920827253933689095939827147942
24,1.173563222586676935664034400680926
25,1.181848344089021877305987604840082
26,1.189804629768233708184739537931155
27,1.197457247282636588000278853399445
28,1.204828577300653601203602751159325
29,1.211938610702758793802379447249160
30,1.218805277423301819239412136768377
31,1.225444720583227223930117481741075
32,1.231871526486810817732914847918215
33,1.238098918745887770073663738040145
34,1.244138923044500805986669376655393
35,1.250002507717701810421416026698482
36,1.255699704284761270464825716381156
37,1.261239711272955436507228491124375
38,1.266630984037682340164550569413265
39,1.271881312786809157197708330789383
40,1.276997890621332620086000169418947
41,1.281987373087683911161585759049689
42,1.286855930482016865685708074342347
43,1.291609293940331969315423215132542
44,1.296252796180194618894081332579991
45,1.300791407622236546493584788222963
46,1.305229768506493024037082927520003
47,1.309572217525151853495071263129490
48,1.313822817415703783396802553936555
49,1.317985377893821448500220970265906
50,1.32206347625117121580881273560705
51,1.32606047589789535765016463380676
52,1.32997954309115675823065171593918
53,1.33382366205868824153403358594994
54,1.33759564869872747697508612706990
55,1.34129816301424292670710833651693
56,1.34493372041928172835670266610877
57,1.34850470203807144183990447071165
58,1.35201336410271040262274466937221
59,1.35546184654252747651384544869849
60,1.35885218084716750337442814956533
61,1.36218629727589448962635513002650
62,1.36546603147730360432537449909100
63,1.36869313057639114454600866864218
64,1.37186925877961915590242678902265
65,1.37499600254307655405685583411512
66,1.37807487534399125401282552865764
67,1.38110732209158552266476923902323
68,1.38409472320951060926688954593955
69,1.38703839841878403775741800273026
70,1.38993961024722467661015108969686
71,1.39279956728878199815428760255095
72,1.39561942723385769692332451429296
73,1.39840029968966483019061867960936
74,1.40114324880785079529608040947711
75,1.40384929573497935726564793481650
76,1.40651942090001738346967617311426
77,1.40915456615166954364840472681685
78,1.41175563675723843545230934497912
79,1.41432350327364077565288161850390
80,1.41685900330027217153481322404529
81,1.41936294312256364550405227746103
82,1.42183609925431163539248273055558
83,1.42427921988617445915033356695175
84,1.42669302624710394090125596994223
85,1.42907821388492161916127173669947
86,1.43143545387173309263338438718718
87,1.43376539393941658818985978706268
88,1.43606865954999845791833203123729
89,1.43834585490534480994638122532124
90,1.44059756390025526102998014619235
91,1.44282435102272334684048003866511
92,1.44502676220483982834556146971161
93,1.44720532562755287762406588442266
94,1.44936055248225619771637957889752
95,1.45149293769195497708313901812536
96,1.45360296059455775712840818244264
97,1.45569108559065794913413296174425
98,1.45775776275799586265763525272644
99,1.45980342843463863525509835738879
100,1.46182850577276911297765959923489
101,1.46383340526484542693243660991610
102,1.46581852524376743647962332413099
103,1.46778425235857829602387463468463
104,1.46973096202712213764806146848313
105,1.47165901886698578808014419132182
106,1.47356877710596167424060378604529
107,1.47546058097319098966225116359608
108,1.47733476507206695451986446897050
109,1.47919165473590940847311670372669
110,1.48103156636735955540094443701514
111,1.48285480776237781790723342864632
112,1.48466167841967832584413003306727
113,1.48645246983637802730516072770177
114,1.48822746579058965278421159547865
115,1.48998694261164731469361332924232
116,1.49173116943860519278658712438221
117,1.49346040846761804302244543358397
118,1.49517491518877123630735982095562
119,1.49687493861289431982734234515526
120,1.49856072148886625145509068761502
121,1.50023250051188219046799451770182
122,1.50189050652313281468203640931235
123,1.50353496470131494117421493786476
124,1.50516609474637454795750304165849
125,1.50678411105585372770930967505527
126,1.50838922289419790735682308655345
127,1.50998163455535908943626620662927
128,1.51156154551900828395319890729412
129,1.51312915060065822623296764699588
130,1.51468464009597909438308946289566
131,1.51622819991957453587131386524781
132,1.51776001173847033552259570352366
133,1.51928025310055627565360284049255
134,1.52078909755821046310540548292525
135,1.52228671478731728959200069217868
136,1.52377327070188650425191151879761
137,1.52524892756446756934701991836885
138,1.52671384409253985806170431755491
139,1.52816817556105714745015112182246
140,1.52961207390130941361121885918142
141,1.53104568779626037868036650838507
142,1.53246916277251118596121457681722
143,1.53388264128903192934986005188302
144,1.53528626282279558356838149585771
145,1.53668016395144469396446582539373
146,1.53806447843311331588372439834450
147,1.53943933728351849065482967297424
148,1.54080486885043658719461881753373
149,1.54216119888566631016587273989060
150,1.54350845061458201554328983169998
151,1.54484674480337324781974599424807
152,1.54617619982406079799983134830609
153,1.54749693171737823205145858048717
154,1.54880905425360278903398943807364
155,1.55011267899141388487190502265055
156,1.55140791533485708811301745373910
157,1.55269487058848461424973466140172
158,1.55397365001074415668002947728443
159,1.5552443568656797271165717612268
160,1.5565070924730108429566678940680
161,1.5577619562566485577071672678004
162,1.5590090457917077955388276520257
163,1.5602484568500708432424061639048
164,1.5614802834445566361549299887567
165,1.5627046178717444382468689377637
166,1.5639215507535024319320583528365
167,1.5651311710772684498932711249500
168,1.5663335662351255378101538471781
169,1.5675288220617174100534040082819
170,1.5687170228710435414344392820671
171,1.5698982514921740894444613532909
172,1.5710725893039225136144239655584
173,1.5722401162685112942999682129158
174,1.5734009109642665943789144346976
175,1.5745550506173758487676574868088
176,1.5757026111327379880829079518749
177,1.5768436671239395569595976249626
178,1.5779782919423858813948853469715
179,1.5791065577056137300374083077447
180,1.5802285353248164157945496055287
181,1.5813442945316039863171451889272
182,1.5824539039040261987208014206151
183,1.5835574308918813277913024633814
184,1.5846549418413350491836576801486
185,1.5857465020188712057118750684692
186,1.5868321756345954253219086502732
187,1.5879120258649153912190794185787
188,1.5889861148746132004374706566968
189,1.5900545038383335419123622295750
190,1.5911172529615033451036982676621
191,1.5921744215007021216920891133296
192,1.5932260677834993825198415976482
193,1.5942722492277774335934891735238
194,1.5953130223605528918986875749600
195,1.5963484428363148533537054839735
196,1.5973785654548934047686268854150
197,1.5984034441788728550979940316069
198,1.5994231321505638479321190785231
199,1.6004376817085471890475219040975
200,1.6014471444038033291816884046565
201,1.6024515710154384784155555492576
202,1.6034510115660207282799509215944
203,1.6044455153365368362723752639640
204,1.6054351308809812876506285984415
205,1.6064199060405875998200101481254
206,1.6073998879577148880159211457840
207,1.6083751230893955629122393545065
208,1.6093456572205583815651386298427
209,1.6103115354769325945249501832988
210,1.6112728023376446847202238326977
211,1.6122295016475150570754372509263
212,1.6131816766290649059898149341192
213,1.6141293698942376385705399176178
214,1.6150726234558498293089659358133
215,1.6160114787387709124301792961407
216,1.6169459765908455663717880597343
217,1.6178761572935627494328784217202
218,1.6188020605724803590415212094349
219,1.6197237256074087875757876182827
220,1.6206411910423658828639142143162
221,1.6215544949953012156527755981885
222,1.6224636750676068514077976028728
223,1.6233687683534081872745822425755
224,1.6242698114486499134983511979102
225,1.6251668404599796558425746128925
226,1.6260598910134328369457276405773
227,1.6269489982629273994608014603479
228,1.6278341968985702011757187623449
229,1.6287155211547822342561092603017
230,1.6295930048182473548451404303778
231,1.6304666812356863122818725159626
232,1.6313365833214664868487974190292
233,1.6322027435650423215436595431446
234,1.6330651940382425939320978245420
235,1.6339239664023976991707674901650
236,1.6347790919153166429599651784458
237,1.6356306014381173645423751564431
238,1.6364785254419121207490459522897
239,1.6373228940143533666616584838409
240,1.6381637368660422862975576452533
241,1.6390010833368042546541953007161
242,1.6398349624018340870516563597375
243,1.6406654026777151065346175516978
244,1.6414924324283137175569209654729
245,1.6423160795705538590475138085798
246,1.6431363716800738554124764149901
247,1.6439533359967670472453926807981
248,1.6447669994302137822878073290271
249,1.6455773885649997351418343092591
250,1.6463845296659309398426509049199
251,1.6471884486831434347051459560205
252,1.6479891712571103173460734497516
253,1.6487867227235512814874566547753
254,1.6495811281182442918003724249274
255,1.6503724121817432762206308746432
256,1.6511605993640019205058038483707
257,1.6519457138289099557802472350158
258,1.6527277794587383831292823900185
259,1.6535068198585004380958204899744
260,1.6542828583602286807865216978001
261,1.6550559180271685246475165181518
262,1.6558260216578929286445110656199
263,1.6565931917903371027371797892958
264,1.6573574507057586768087751712736
265,1.6581188204326218575866258763817
266,1.6588773227504077405938594617750
267,1.6596329791933539896726929498363
268,1.6603858110541239170863897736245
269,1.6611358393874092334074416953196
270,1.6618830850134621906245719311691
271,1.6626275685215664017132483919150
272,1.6633693102734403155228389978776
273,1.6641083304065807893824023760333
274,1.6648446488375439677319513437273
275,1.6655782852651673416464311358712
276,1.6663092591737312668940232020073
277,1.6670375898360674238306189168707
278,1.6677632963166059730671765090458
279,1.6684863974743729093669565572223
280,1.6692069119659297066314597414623
281,1.6699248582482631427908839304785
282,1.6706402545816228008605405886477
283,1.6713531190323094586025811148425
284,1.6720634694754115233218492718981
285,1.6727713235974963190498354799327
286,1.6734766988992522508552258329780
287,1.6741796126980869055665995392761
288,1.6748800821306774906769321725661
289,1.6755781241554782594878338870053
290,1.6762737555551856550156802349910
291,1.6769669929391590135939852350585
292,1.6776578527457997130732135760004
293,1.6783463512448926713871961772356
294,1.6790325045399052323964747071771
295,1.6797163285702455261470313449745
296,1.6803978391134878891011938754726
297,1.6810770517875552760602102395252
298,1.6817539820528679805252373069377
299,1.6824286452144554663484614489384
300,1.6831010564240330612729605222025
301,1.6837712306820439237931259033817
302,1.6844391828396683762615505320240
303,1.6851049276007977773658744120282
304,1.6857684795239765114986429227716
305,1.6864298530243135235409887319467
306,1.6870890623753626622745729545371
307,1.6877461217109690143898597828568
308,1.6884010450270887075340984704376
309,1.6890538461835782716796993776723
310,1.6897045389059538939748583029850
311,1.6903531367871241619945146297377
312,1.6909996532890938085406967854599
313,1.6916441017446398507565357013596
314,1.6922864953589619278439518035262
315,1.6929268472113061570453839624384
316,1.6935651702565638835476094107951
317,1.6942014773268428629305334428367
318,1.6948357811330162274228786659779
319,1.6954680942662463775448073946273
320,1.6960984291994838004135803996403
321,1.6967267982889447336649800266699
322,1.6973532137755637894401936568878
323,1.6979776877864250524957746668442
324,1.6986002323361706295958555245111
325,1.6992208593283884121868675221386
326,1.6998395805569772896012766405002
327,1.7004564077074926335654816104278
328,1.7010713523584692432273199251847
329,1.7016844259827267255820931592457
330,1.7022956399486537429839935997290
331,1.7029050055214725663410150105058
332,1.7035125338644849952378876299506
333,1.7041182360403000235477923908538
334,1.7047221230120414345592034940763
335,1.7053242056445396405565495513515
336,1.7059244947055038249098240940619
337,1.7065230008666772589258998987272
338,1.7071197347049768523177899119559
339,1.7077147067036130018054716895765
340,1.7083079272531958291950489284110
341,1.7088994066528235225201093420308
342,1.7094891551111552774019053137056
343,1.7100771827474684764252134990548
344,1.7106634995927001002441405606160
345,1.7112481155904741897609141617445
346,1.7118310405981128341806021763452
347,1.7124122843876342503097981563413
348,1.7129918566467347648325016874033
349,1.7135697669797582444974956863786
350,1.7141460249086505165689673209044
351,1.7147206398739008671539091137245
352,1.7152936212354702997838496010424
353,1.7158649782737058386408917836544
354,1.7164347201902422909174764650274
355,1.7170028561088918336064390330297
356,1.7175693950765196345249593888990
357,1.7181343460639087466313608052739
358,1.7186977179666135196573312820271
359,1.7192595196057972742171276307056
360,1.7198197597290631763357024423337
361,1.7203784470112700572889718767343
362,1.7209355900553396603807539999227
363,1.7214911973930499102949380187280
364,1.7220452774858192290436267496732
365,1.7225978387254801349050789421935
366,1.7231488894350410020498299735158
367,1.7236984378694388728934721583367
368,1.7242464922162801119361779393433
369,1.7247930605965735336641204628143
370,1.7253381510654517177200681602620
371,1.7258817716128833646851470767851
372,1.7264239301643756489838536961808
373,1.7269646345816665356627673491205
374,1.7275038926634113695566881845929
375,1.7280417121458544284484619939738
376,1.7285781007034968964740595978531
377,1.7291130659497530470217809496957
378,1.7296466154375978025736863709329
379,1.7301787566602075113310583260266
380,1.7307094970515906974270887792229
381,1.7312388439872116602036867746709
382,1.7317668047846040407623596390324
383,1.7322933867039790304932668033441
384,1.7328185969488231853242070029825
385,1.7333424426664894669886839367378
386,1.7338649309487821700074767600098
387,1.7343860688325314837640925886384
388,1.7349058633001616265167101529766
389,1.7354243212802532260749584062558
390,1.7359414496480971362926439706771
391,1.7364572552262400063606425240621
392,1.7369717447850252113220300410702
393,1.7374849250431266173400163355429
394,1.7379968026680737628621966287900
395,1.7385073842767713125993389403561
396,1.7390166764360124352324971329499
397,1.7395246856629857348051501235176
398,1.7400314184257757439815090873152
399,1.7405368811438555450122534085150
400,1.7410410801885758184148857856459
401,1.7415440218836463683384550117053
402,1.7420457125056108698822395419554
403,1.7425461582843176591590419919698
404,1.7430453654033844592478410393885
405,1.7435433400006545075348248814220
406,1.7440400881686501935336800849869
407,1.7445356159550213239609886813271
408,1.7450299293629855183195785195032
409,1.7455230343517635961253614376190
410,1.7460149368370124703161413872461
411,1.7465056426912498069216662256657
412,1.7469951577442740336468766241564
413,1.7474834877835807764915714196477
414,1.7479706385547721483170620179920
415,1.7484566157619631733892493459648
416,1.7489414250681817775977391559705
417,1.7494250720957651929076162556936
418,1.7499075624267499393504218029866
419,1.7503889016032596631383767977024
420,1.7508690951278858128967827716729
421,1.7513481484640651062716779962075
422,1.7518260670364530685943432443014
423,1.7523028562312914798174033173858
424,1.7527785213967733435290598004258
425,1.7532530678434017574825195411770
426,1.7537265008443462925653669902298
427,1.7541988256357943649209868686053
428,1.7546700474172976149937795748691
429,1.7551401713521172059719728587392
430,1.7556092025675609038218018439728
431,1.7560771461553194426546661929781
432,1.7565440071717993250330303785397
433,1.7570097906384473952033493103197
434,1.7574745015420782832861193073580
435,1.7579381448351925441924492730768
436,1.7584007254362933923527003589470
437,1.7588622482302001937266032427624
438,1.7593227180683576972564658584935
439,1.7597821397691416871699124694725
440,1.7602405181181621274484313566972
441,1.7606978578685609584187528427614
442,1.7611541637413081092204963261433
443,1.7616094404254953739516451547450
444,1.7620636925786227709746732715048
445,1.7625169248268867161531225638050
446,1.7629691417654610344810929627183
447,1.7634203479587779793900405479714
448,1.7638705479408024780530767696563
449,1.7643197462153074433090145223119
450,1.7647679472561423047710252040419
451,1.7652151555075022623372448711007
452,1.7656613753841911035775415332615
453,1.7661066112718833281976965605995
454,1.7665508675273819686599437320236
455,1.7669941484788757309654168610441
456,1.7674364584261907527326967830737
457,1.7678778016410416744194203439527
458,1.7683181823672784197219644173725
459,1.7687576048211311992225723755577
460,1.7691960731914533797732853219653
461,1.7696335916399600694893912418327
462,1.7700701643014656315546450274043
463,1.7705057952841187307652758228671
464,1.7709404886696330738728620531240
465,1.7713742485135178126267502268579
466,1.7718070788453047403723395140648
467,1.7722389836687715628920632104710
468,1.7726699669621662592965294158811
469,1.7731000326784250098396190624208
470,1.7735291847453912153726131752017
471,1.7739574270660298757256549064220
472,1.7743847635186416248126445120115
473,1.7748111979570717735477749515738
474,1.7752367342109218647609214785873
475,1.7756613760857526630594567537128
476,1.7760851273632910936417636378727
477,1.7765079918016314632607529230484
478,1.7769299731354356395330296785369
479,1.7773510750761310781854221929729
480,1.7777713013121070930370742695878
481,1.7781906555089079198080808654318
482,1.7786091413094261427644083435013
483,1.7790267623340918644228659744756
484,1.7794435221810604383007222141187
485,1.7798594244264002418217486817313
486,1.7802744726242750744098169658317
487,1.7806886703071280297985120905834
488,1.7811020209858614392888357578922
489,1.7815145281500161143090155520258
490,1.7819261952679477515797477559692
491,1.7823370257870026353450654608936
492,1.7827470231336912250428259916710
493,1.7831561907138596036100974218836
494,1.7835645319128598806555249097038
495,1.7839720500957177431897618891873
496,1.7843787486073003985369883615570
497,1.7847846307724805951511626207023
498,1.7851896998963006667980283710061
499,1.7855939592641340976399791035585
500,1.785997412141846738910019893642
501,1.786400061775953423411008117021
502,1.786801911393777433216683255185
503,1.787202964203604288904793875090
504,1.787603223394837704365611009134
505,1.788002692138150554860842857703
506,1.788401373585636588637412919450
507,1.788799270870960730339035797486
508,1.789196387109507616400853441824
509,1.789592725398526593545036335906
510,1.789988288817279233846111851615
511,1.790383080427182597684481119054
512,1.790777103271952145031612688025
513,1.791170360377742911057378545524
514,1.791562854753289622789758815792
515,1.791954589390046131399593033365
516,1.792345567262322370784170862607
517,1.792735791327419917536587770660
518,1.793125264525767938045261030607
519,1.793513989781056305035870316095
520,1.793901970000368740941695584582
521,1.794289208074312783722619402373
522,1.794675706877150851738905586001
523,1.795061469266928845252188119931
