Eigenstate,Potential Energy
1,0.500000000013169508383723659937734359
2,0.64623093773707830212106007117999154
3,0.73633760995748683346467505841085561
4,0.79966527834019042546733527059777308
5,0.8480465761967409213433348935997739
6,0.8870659982800324629976411131119454
7,0.9197208260274053090142660931102250
8,0.9477838458153724753605028153381461
9,0.9723835566499654063027221084251772
10,0.9942802126796017150487071932581335
11,1.0140093840452166078933631901698600
12,1.0319621660513651175277872889499048
13,1.0484326887637978969344564906308727
14,1.0636476498656135370305093219596268
15,1.0777854304714378947837733423840815
16,1.090988899997865734871610822005033
17,1.103374249624962937573248830191036
18,1.115037243302464622459435565953013
19,1.126057740853751910937343688625654
20,1.136503035609787811198911550429366
21,1.146430360490814024171384377669088
22,1.155888799165090822264832426704145
23,1.164920763985421527038694861976196
24,1.173563153389574542305922330152081
25,1.181848268696209655007550411266767
26,1.189804547912465719829783712809123
27,1.197457158696536446327392163252692
28,1.204828481716710200879358638868599
29,1.211938507853321916142657810162891
30,1.218805167040577632660187533653285
31,1.225444602399273698114397094780383
32,1.231871400233533065654752581707120
33,1.238098784155033329086739425823982
34,1.244138779847654866925643148635336
35,1.250002355646282401908301235702512
36,1.255699543070014404236321473361798
37,1.261239540645950218491479692654564
38,1.266630803729306051170231814845583
39,1.271881122527762306384446506660814
40,1.276997690142123973825151549130202
41,1.281987162118625499441726933281249
42,1.286855708753218967845709258445728
43,1.291609061181698080582804175976528
44,1.296252552121416398954343861607978
45,1.300791151992788751106964055480104
46,1.305229501035628420544596470159792
47,1.309571937941896120909485221832877
48,1.313822525448850397650939259483886
49,1.317985073271926553320938090084369
50,1.32206315870254847959659886623523
51,1.32606014515061081666889727206879
52,1.32997919887302364634764741567878
53,1.33382330409726180669515026975534
54,1.33759527672129978455189593060542
55,1.34129777674783764981190697624308
56,1.34493331959064892518527829558516
57,1.34850428637368232007084908708157
58,1.35201293332875207087471770044352
59,1.35546140038489768283843114487866
60,1.35885171903146936074113992384414
61,1.36218581952743118833783955248349
62,1.36546553752107311128439073909579
63,1.36869262013708088928124921489252
64,1.37186873158160070324728910467699
65,1.37499545831040026336357059545270
66,1.37807431380038092477404379580265
67,1.38110674296043302640532246367086
68,1.38409412621387050756000901244676
69,1.38703778328136818621196788993249
70,1.38993897669039681466869026747934
71,1.39279891503455232453516449209708
72,1.39561875600387743053450788253877
73,1.39839960920522075633739966644347
74,1.40114253878985979700006328001076
75,1.40384856590398293150778201084561
76,1.40651867097617614216600635729033
77,1.40915379585475769916321157749488
78,1.41175484580663827044967459213299
79,1.41432269138833709708426517816288
80,1.41685817019884674855707478522708
81,1.41936208852318963111918103267305
82,1.42183522287474797159746537906089
83,1.42427832144376026538283917684945
84,1.42669210545875288556415489395159
85,1.42907727046711627400647739972951
86,1.43143448754051926978313834087824
87,1.43376440441039765957114056106266
88,1.43606764653832965688385959205936
89,1.43834481812572751485351561303308
90,1.44059650306693126054663216887158
91,1.44282326584946908674503907842048
92,1.44502565240496063958587070371674
93,1.44720419091387718539840931697958
94,1.44935939256712971133751970310646
95,1.45149175228723486038442812747507
96,1.45360174941160677916921763330114
97,1.45568984834033861495974900094112
98,1.45775649915066452386710333825964
99,1.45980213818013958012844249242424
100,1.46182718858042863591219407740723
101,1.46383206084346587693593618917260
102,1.46581715330162124446631936830649
103,1.46778285260340198065749113400577
104,1.46972953416611028947403084532940
105,1.47165756260678503168757753343860
106,1.47356729215266460819257324136623
107,1.47545906703233010393115255461425
108,1.47733322184860852516282830814322
109,1.47919008193424736928044484535342
110,1.48102996369130934624883884528667
111,1.48285317491517020954410791991607
112,1.48466001510395322083791876452252
113,1.48645077575417823687721900765742
114,1.48822574064335464925336718690522
115,1.48998518610020695925212625728219
116,1.49172938126317343832776074665635
117,1.49345858832778661173769065269512
118,1.49517306278350327176859508587390
119,1.49687305364051801326857890805305
120,1.49855880364706844196499675766793
121,1.50023054949770193880333321187232
122,1.50188852203295495040974581305417
123,1.50353294643086358284786209954075
124,1.50516404239070659603178349186657
125,1.50678202430935232989412490992338
126,1.50838710145056589611036427696669
127,1.50997947810761239129439013644412
128,1.51155935375946930039021616220625
129,1.51312692322094918574676687039789
130,1.51468237678701537549533596903805
131,1.51622590037155796073125796655708
132,1.51775767564088243380050887324885
133,1.51927788014215151840808734862100
134,1.52078668742700946630601888429864
135,1.52228426717059998697645575842986
136,1.52377078528618528919497799807460
137,1.52524640403556040541551728513505
138,1.52671128213544335792783729087583
139,1.52816557486001961983281694098838
140,1.52960943413980387791252904609704
141,1.53104300865697754698219782953628
142,1.53246644393735241204393039117030
143,1.53387988243910212439295700461823
144,1.53528346363839609818999809958785
145,1.53667732411206616625441854106858
146,1.53806159761742848508176443811816
147,1.53943641516937497612336371875390
148,1.54080190511484963233234307785010
149,1.54215819320481149090601367223501
150,1.54350540266378791307756977755021
151,1.54484365425711408518606195879767
152,1.54617306635594904016912907270460
153,1.54749375500015714914619400175993
154,1.54880583395913898230792232365571
155,1.55010941479068977507783865458472
156,1.55140460689796336588205493175445
157,1.55269151758461265210297019033156
158,1.55397025210817838229030701304322
159,1.5552409137317899574348890400086
160,1.5565036037742445788148323860676
161,1.5577584216585232385050512561112
162,1.5590054649588030136213716945815
163,1.5602448294460205175685997604113
164,1.5614766091320411448573795532872
165,1.5627008963124827096773791543234
166,1.5639177816082439937855697200231
167,1.5651273540057854359988689180315
168,1.5663297008962046521745295029015
169,1.5675249081131518477388580251987
170,1.5687130599696248658497272124817
171,1.5698942392936840656236127166058
172,1.5710685274631248970548752081871
173,1.5722360044391435749278952022281
174,1.5733967487990316952058507703467
175,1.5745508377679337787989412993570
176,1.5756983472496974490346492599420
177,1.5768393518568495033372558007078
178,1.5779739249397270334825220406193
179,1.5791021386147900393430613143968
180,1.5802240637921464824929452676794
181,1.5813397702023124282273892885222
182,1.5824493264222349713524219762960
183,1.5835527999006009949880769166061
184,1.5846502569824560038906107633366
185,1.5857417629331548403864473786841
186,1.5868273819616652515066086182560
187,1.5879071772432481077881440635485
188,1.5889812109415297100261361708825
189,1.5900495442299899150328957579354
190,1.5911122373128817314478941158644
191,1.5921693494456016081156829317732
192,1.5932209389545267971995966154937
193,1.5942670632563380958432995387911
194,1.5953077788768413071263900259165
195,1.5963431414693053526357369031565
196,1.5973732058323307285148615839921
197,1.5983980259272626802742716092174
198,1.5994176548951632583035221678352
199,1.6004321450733550879000648514563
200,1.6014415480115507939755550865046
201,1.6024459144875790568179884190601
202,1.6034452945227206750205719265498
203,1.6044397373966652902590161618524
204,1.6054292916621003887782817495153
205,1.6064140051589425449004739426992
206,1.6073939250282239252503167092343
207,1.6083690977256399243233157502697
208,1.6093395690347721528007910053177
209,1.6103053840799925214389627086050
210,1.6112665873390599161306539482743
211,1.6122232226554168230956316397286
212,1.6131753332501961313211928825640
213,1.6141229617339424901404787641132
214,1.6150661501180631976316343403257
215,1.6160049398260078260619878849613
216,1.6169393717041905388273107135211
217,1.6178694860326590579211025352426
218,1.6187953225355192543763017249575
219,1.6197169203911186346077905706947
220,1.6206343182420012307758395819732
221,1.6215475542046317974524699306503
222,1.6224566658789065119483559354337
223,1.6233616903574437391234189253161
224,1.6242626642346699199711953115017
225,1.6251596236157031405112373463351
226,1.6260526041250379189221291695103
227,1.6269416409150398537531109150971
228,1.6278267686742519434051933542642
229,1.6287080216355197290165585616249
230,1.6295854335839399469800621145511
231,1.6304590378646344803467388952673
232,1.6313288673903600180193087392904
233,1.6321949546489484072233269624482
234,1.6330573317105938453048359958149
235,1.6339160302349800819373674161839
236,1.6347710814782573304892457322517
237,1.6356225162998725086605143495893
238,1.6364703651692545393826248519541
239,1.6373146581723601475424602463572
240,1.6381554250180823059287669789870
241,1.6389926950445256117301935875999
242,1.6398264972251514495153696088712
243,1.6406568601747969714477091984146
244,1.6414838121555695829505958552703
245,1.6423073810826213069127127045224
246,1.6431275945298055449798133969077
247,1.6439444797352176176970413902510
248,1.6447580636066266640342351245084
249,1.6455683727267938687879221153031
250,1.6463754333586874019586787962594
251,1.6471792714505919695087669862099
252,1.6479799126411157733929333082030
253,1.6487773822640999524583185538169
254,1.6495717053534301604633717822305
255,1.6503629066477541606380482220630
256,1.6511510105951055215447362825590
257,1.6519360413574398049771057105980
258,1.6527180228150796899482746565573
259,1.6534969785710758356114839482623
260,1.6542729319554838688102894576452
261,1.6550459060295578093081111867524
262,1.6558159235898646574216891228945
263,1.6565830071723189939378282446311
264,1.6573471790561430424638716113400
265,1.6581084612677507187367030571918
266,1.6588668755845578339199247737600
267,1.6596224435387216644183988901052
268,1.6603751864208099212062620971828
269,1.6611251252834033878646335516801
270,1.6618722809446279507502516794928
271,1.6626166739916253045283063396963
272,1.6633583247839563119103503948125
273,1.6640972534569444599883057927113
274,1.6648334799249566214586265715849
275,1.6655670238846249955924143568746
276,1.6662979048180085065799891053765
277,1.6670261419957011425401358836930
278,1.6677517544798789891175327856591
279,1.6684747611272974601130091544032
280,1.6691951805922308179921429381314
281,1.6699130313293618730752263482093
282,1.6706283315966193576566050577768
283,1.6713410994579661874795419036639
284,1.6720513527861357670815459561398
285,1.6727591092653231462502838450787
286,1.6734643863938270523152706001702
287,1.6741672014866478575459465582278
288,1.6748675716780378834118028525286
289,1.6755655139240086897484445053206
290,1.6762610450047960813362853196039
291,1.6769541815272806728118947870683
292,1.6776449399273668967979288820252
293,1.6783333364723243610058679773145
294,1.6790193872630865912053659583927
295,1.6797031082365092471848803148512
296,1.6803845151675953972427675354336
297,1.6810636236716777829129699892659
298,1.6817404492065673906561691910041
299,1.6824150070746651333508591750070
300,1.6830873124250383921667522581688
301,1.6837573802554628302351447907533
302,1.6844252254144315710254612905249
303,1.6850908626031289145335141134996
304,1.6857543063773721687873121365947
305,1.6864155711495230251733344202428
306,1.6870746711903677407796468186606
307,1.6877316206309633097055446431090
308,1.6883864334644571017627500665879
309,1.6890391235478760578298644664228
310,1.6896897046038857770029671760476
311,1.6903381902225230904415456539419
312,1.6909845938628996350382290546400
313,1.6916289288548778196579757642454
314,1.6922712084007209882163035463756
315,1.6929114455767170992359395389184
316,1.6935496533347772975203134934530
317,1.6941858445040069165451620853396
318,1.6948200317922542628094195645057
319,1.6954522277876343237037821722595
320,1.6960824449600274001514629031096
321,1.6967106956625565829517800107482
322,1.6973369921330401872536795720171
323,1.6979613464954226591947998626799
324,1.6985837707611829318416934105136
325,1.6992042768307219924086569055346
326,1.6998228764947278979776290455715
327,1.7004395814355210604711192938901
328,1.7010544032283769900687458285152
329,1.7016673533428314719220938947989
330,1.7022784431439646078300121701264
331,1.7028876838936651614466296828631
332,1.7034950867518762682421057672973
333,1.7041006627778228887495777827867
334,1.7047044229312191890999850818131
335,1.7053063780734601637551796881207
336,1.7059065389687935584690475653278
337,1.7065049162854749657004042142098
338,1.7071015205969071513076343581824
339,1.7076963623827596770098599200952
340,1.7082894520300749099326646737405
341,1.7088807998343561327937896333994
342,1.7094704160006402518558509553849
343,1.7100583106445547404130825677388
344,1.7106444937933588114966790437586
345,1.7112289753869706391106005313441
346,1.7118117652789781027702703913541
347,1.7123928732376366206804310098343
348,1.7129723089468508832536259590689
349,1.7135500820071440318715794205911
350,1.7141262019366118252073769890291
351,1.7147006781718638806902640133710
352,1.7152735200689516734556458163529
353,1.7158447369042825771365905237471
354,1.7164143378755213609512524326713
355,1.7169823321024795083481896193415
356,1.7175487286279905669766853507159
357,1.7181135364187747690052791648154
358,1.7186767643662921657744743596454
359,1.7192384212875800219075022619398
360,1.7197985159260834067837057111248
361,1.7203570569524707282289300746426
362,1.7209140529654406900090575131306
363,1.7214695124925152687256976817966
364,1.7220234439908237340943457475208
365,1.7225758558478759489587939795132
366,1.7231267563823238266983823651094
367,1.7236761538447138380256366512499
368,1.7242240564182273558906878123347
369,1.7247704722194134710257704645106
370,1.7253154092989099912929395403066
371,1.7258588756421554781325955005069
372,1.7264008791700912765801843311176
373,1.7269414277398535055555069602784
374,1.7274805291454593168927108113991
375,1.7280181911184781146696181932113
376,1.7285544213286991910409792130818
377,1.7290892273847875677748403967625
378,1.7296226168349312108928605508630
379,1.7301545971674814582049499290942
380,1.7306851758115834164918376978298
381,1.7312143601377992037604653182084
382,1.7317421574587211547307543131554
383,1.7322685750295796642039583225255
384,1.7327936200488406320022520074351
385,1.7333172996587961307221448611127
386,1.7338396209461489549426767701138
387,1.7343605909425868012118323843295
388,1.7348802166253500155963469245080
389,1.7353985049177935834665111411034
390,1.7359154626899405506072869164767
391,1.7364310967590271925809050403288
392,1.7369454138900435407019281690177
393,1.7374584207962667380948816337405
394,1.7379701241397858069143319276397
395,1.7384805305320206835828039446529
396,1.7389896465342351728964963484256
397,1.7394974786580434508887963916552
398,1.7400040333659101245679420840812
399,1.7405093170716424143015497212382
400,1.7410133361408787587871180659239
401,1.7415160968915698915093548710120
402,1.7420176055944531338818607440064
403,1.7425178684735227257940947622453
404,1.7430168917064940866339114917931
405,1.7435146814252594722116434341434
406,1.7440112437163411366010308672723
407,1.7445065846213391155971675187763
408,1.7450007101373711349661805511457
409,1.7454936262175075045437994093919
410,1.7459853387712035126412739398254
411,1.7464758536647235807568120621710
412,1.7469651767215607611617832096998
413,1.7474533137228526564013302495656
414,1.7479402704077901845345982372025
415,1.7484260524740234740570808210115
416,1.7489106655780613181179694930036
417,1.7493941153356670364988705103757
418,1.7498764073222479085700886521203
419,1.7503575470732424557155670205109
420,1.7508375400845005551283801635314
421,1.7513163918126603371396197716542
422,1.7517941076755211476629307209649
423,1.7522706930524104118738198099974
424,1.7527461532845480128276598199360
425,1.7532204936754045643552052189771
426,1.7536937194910571850542542917231
427,1.7541658359605402579855096371869
428,1.7546368482761911897382574100716
429,1.7551067615939950812310955657725
430,1.7555755810339211723306395369140
431,1.7560433116802585639190528232345
432,1.7565099585819483669011921357316
433,1.7569755267529076160241600371505
434,1.7574400211723560464221886861584
435,1.7579034467851335565359357283699
436,1.7583658085020162583713542751553
437,1.7588271112000292764417745656672
438,1.7592873597227552774311902467504
439,1.7597465588806394118564571732003
440,1.7602047134512917389146497238564
441,1.7606618281797842943406240374259
442,1.7611179077789463648930178706398
443,1.7615729569296576171354142471153
444,1.7620269802811336998546060805530
445,1.7624799824512136507449645752286
446,1.7629319680266401316780807699897
447,1.7633829415633396616956490566885
448,1.7638329075866960658958522263046
449,1.7642818705918249806864673273372
450,1.7647298350438415678135241796978
451,1.7651768053781289402273687105331
452,1.7656227860006001411012595586176
453,1.7660677812879594190405823916400
454,1.7665117955879591883979032749753
455,1.7669548332196562985311657670023
456,1.7673968984736629089695877910384
457,1.7678379956123966661585256717670
458,1.7682781288703265776438982057900
459,1.7687173024542170975848227902620
460,1.7691555205433700659002541745637
461,1.7695927872898623507374228051339
462,1.7700291068187824072747142888217
463,1.7704644832284643565915886358198
464,1.7708989205907177454729881647643
465,1.7713324229510569558446201418773
466,1.7717649943289273944965173337617
467,1.7721966387179277435710673604734
468,1.7726273600860332874161863848444
469,1.7730571623758127924593050108081
470,1.7734860495046464646019356997543
471,1.7739140253649392511997338836404
472,1.7743410938243337851973661551758
473,1.7747672587259183222782498804913
474,1.7751925238884371749791235957428
475,1.7756168931064925664807580399503
476,1.7760403701507504178356001901926
477,1.7764629587681404015837565680067
478,1.7768846626820549376997096981289
479,1.7773054855925460212077223976139
480,1.7777254311765202759992039421454
481,1.7781445030879307856789656333295
482,1.7785627049579692701784478725263
483,1.7789800403952539880830847766423
484,1.7793965129860161843776377020451
485,1.7798121262942865604342363564871
486,1.7802268838620763509834720691648
487,1.7806407892095598567971932301461
488,1.7810538458352530295149121904897
489,1.7814660572161913366577489452925
490,1.7818774268081047698177965058975
491,1.7822879580455921301654449300539
492,1.7826976543422931793192860575322
493,1.7831065190910586304426639680458
494,1.7835145556641190734595052202354
495,1.7839217674132510267358818765562
496,1.7843281576699433594959926659925
497,1.7847337297455597703390804849975
498,1.7851384869315012669533295060566
499,1.7855424324993661441879873741826
500,1.785945569701109590793378974780
501,1.786347901769198670674309076069
502,1.786749431916770133641176654709
503,1.787150163337782523584611841674
504,1.787550099207170427707281125065
505,1.787949242680993714069625672208
506,1.788347596896587487325397025949
507,1.788745164972710610457673972010
508,1.789141950009692432254463500692
509,1.789537955089575951189553747218
510,1.789933183276263468718317034407
511,1.790327637615657962833347515542
512,1.790721321135804081843688358121
513,1.791114236847027373880813071480
514,1.791506387742072428359912457907
515,1.791897776796240303460657349587
516,1.792288406967523449781256583958
517,1.792678281196739204722651306465
518,1.793067402407663642805731359684
519,1.793455773507162563683628731570
520,1.793843397385322474669965298650
521,1.794230276915578362829809463204
522,1.794616414954842532652131244190
523,1.795001814343630946279210204826
