Eigenstate,Potential Energy
1,0.500000000026444094060888919303514983
2,0.64623093782372780378586439706517524
3,0.73633761021201240737831736592974884
4,0.79966527887033714742716660749425585
5,0.8480465771150613556773895423965894
6,0.8870659997010475969052895126683104
7,0.9197208280665580700052118823702224
8,0.9477838485885909171448118244726688
9,0.9723835602734592337385587650192305
10,0.9942802172697586835094597828632842
11,1.0140093897185459387411938256140161
12,1.0319621729244648720817250978476527
13,1.0484326969533353933375200703842327
14,1.0636476594883132731334251985316324
15,1.0777854416440739990772746152168929
16,1.090988912837257261530988078044708
17,1.103374264247971011381752454325129
18,1.115037259825990824131355213095958
19,1.126057759394737516726584793832982
20,1.136503056285213634981861193544555
21,1.146430383417700693495755508719030
22,1.155888824460499372978111088152162
23,1.164920791766454235837939599687913
24,1.173563183773375939768069299623983
25,1.181848301799967677499234934696127
26,1.189804583853412969703251829428500
27,1.197457197591951537588335559562460
28,1.204828523683919173095608760688454
29,1.211938553009699703426772312266476
30,1.218805215503549577556202584090133
31,1.225444654286317102456321198131214
32,1.231871455662178772153200776537868
33,1.238098843242867328688256271442381
34,1.244138842712319927981363142823783
35,1.250002422405479717959634503213963
36,1.255699613841505257829673472714762
37,1.261239615547557658911473146675083
38,1.266630882878916584360915544198714
39,1.271881206043327595632586576050444
40,1.276997778141662550025505716312091
41,1.281987254720224479963756215448974
42,1.286855806075035783184196379533362
43,1.291609163341962208108736501995041
44,1.296252659238431103192966307830097
45,1.300791264184932830061661386517556
46,1.305229618421357957661796731600614
47,1.309572060639746242343860020486161
48,1.313822653577437034544142299325567
49,1.317985206949948208852686279151932
50,1.32206329804878800060557383240384
51,1.32606029028393716967389488782049
52,1.32997934991239369782754417550137
53,1.33382346116172210751040825233823
54,1.33759543992998835841113228769470
55,1.34129794621998578570500689371383
56,1.34493349544558297372009574372047
57,1.34850446873082549366404769924565
58,1.35201312230762624775914876872873
59,1.35546159610512521485969775366421
60,1.35885192161277488492508033044847
61,1.36218602908964344221859912865532
62,1.36546575418412675198979201362539
63,1.36869284402101831637834952785062
64,1.37186896280657388535650958670687
65,1.37499569699667256855471986739254
66,1.37807456006832895476186744954460
67,1.38110699693054845456613457752698
68,1.38409438800676192079444209149854
69,1.38703805301776293068206274010699
70,1.38993925449114284544027570375599
71,1.39279920102062005915916257681332
72,1.39561905029636160660298719283365
73,1.39839991192534229305240064910327
74,1.40114285005896766079507146398970
75,1.40384888584355600576351026207341
76,1.40651899970782510106371917066685
77,1.40915413350022688572030690951226
78,1.41175519248780757878359240264577
79,1.41432304722722385895205238620015
80,1.41685853531760762421905826220313
81,1.41936246304412250457631390102646
82,1.42183560692029385025290442056909
83,1.42427871513650518417922330891854
84,1.42669250892142981564895791270457
85,1.42907768382260703597863124504585
86,1.43143491091185645157486873188010
87,1.43376483792076653901974427967086
88,1.43606809031107012904881849708255
89,1.43834527228433602413499355417960
90,1.44059696773506273766205715946998
91,1.44282374115093889062108102131469
92,1.44502613846374650422368829629863
93,1.44720468785412117177060664086923
94,1.44935990051314016437579571570759
95,1.45149227136348837111743211699901
96,1.45360227974275015207059084088485
97,1.45569039005119084056689454477524
98,1.45775705236621875673162664247680
99,1.45980270302556512215974274465231
100,1.46182776518107292517609333260211
101,1.46383264932485648197071692521161
102,1.46581775378946786417897822379306
103,1.46778346522359844986340370196685
104,1.46973015904473659014375772518658
105,1.47165819987010930996485423429156
106,1.47356794192714519724801191202807
107,1.47545972944461755271658485741644
108,1.47733389702554763313161275973758
109,1.47919077000287922713952242881878
110,1.48103066477887338280866707841918
111,1.48285388914910624473305361537287
112,1.48466074261190352494809235111699
113,1.48645151666398959610911303140673
114,1.48822649508308043762709076142456
115,1.48998595419810921695343722942593
116,1.49173016314772495655748036497959
117,1.49345938412767302413349243179538
118,1.49517387262762515246861106212845
119,1.49687387765799298168659789723141
120,1.49855964196723327434750984518491
121,1.50023140225011468663906132755485
122,1.50188938934739706576269655531151
123,1.50353382843734205068538717941260
124,1.50516493921945607361950774590895
125,1.50678293609083729333007199488490
126,1.50838802831548279407098829438986
127,1.50998042018689180606567078286777
128,1.51156031118427811625740310044313
129,1.51312789612269276481678099660652
130,1.51468336529733974102625507941588
131,1.51622690462235198804378712144841
132,1.51775869576428004884678808448624
133,1.51927891627053390407350604373331
134,1.52078773969300727652036312600260
135,1.52228533570709556871102324157551
136,1.52377187022631491242271804538033
137,1.52524750551271650111185969237210
138,1.52671240028327676419021125203464
139,1.52816670981244183619739746529572
140,1.52961058603098932794717762479107
141,1.53104417762136584923503937154405
142,1.53246763010965065942755342608600
143,1.53388108595428717208458565898508
144,1.53528468463171686012867784444702
145,1.53667856271904592031646820156433
146,1.53806285397386718701651713099421
147,1.53943768941135158233158097624031
148,1.54080319737872443157015477889087
149,1.54215950362722844499790120569916
150,1.54350673138167700672227280365740
151,1.54484500140769368493992808949752
152,1.54617443207672826269187190095594
153,1.54749513942893823879463205603703
154,1.54880723723401969816369694846846
155,1.55011083705006578749577186530958
156,1.55140604828053066264634355374221
157,1.55269297822936995427886087003548
158,1.55397173215442956985956703381852
159,1.5552424133191465048039272165572
160,1.5565051230426280002848306882339
161,1.5577599607481675437941481221042
162,1.5590070240102571735294857771618
163,1.5602464086001509398759614794780
164,1.5614782085300341605485872046626
165,1.5627025160958470695834001070483
166,1.5639194219188133757365021499000
167,1.5651290149857209625811121655016
168,1.5663313826879974191866101839925
169,1.5675266108596254634405732189457
170,1.5687147838139380011002406375361
171,1.5698959843793330150044322526238
172,1.5710702939339461510745167073915
173,1.5722377924393164034055670500248
174,1.5733985584730807419322141979017
175,1.5745526692607316675726498859255
176,1.5757002007064674011740052896528
177,1.5768412274231679667670330686587
178,1.5779758227615263234966922956798
179,1.5791040588383609911448118857515
180,1.5802260065641411156141295374557
181,1.5813417356697466229301901508072
182,1.5824513147324911571167798700266
183,1.5835548112014308511891165056622
184,1.5846522914219831727710110938619
185,1.5857438206598776524295231689601
186,1.5868294631244594633164533791279
187,1.5879092819913696525840900357295
188,1.5889833394246174608594426568736
189,1.5900516965980684608343740004611
190,1.5911144137163641660159582146451
191,1.5921715500352923321550758348076
192,1.5932231638816243335217989113142
193,1.5942693126724379178404901177812
194,1.5953100529339386806316016977501
195,1.5963454403197981912825736854500
196,1.5973755296290224627111352169659
197,1.5984003748233651399045908834841
198,1.5994200290442995692767311399130
199,1.6004345446295625826583570745692
200,1.6014439731292839360828429638466
201,1.6024483653217123797459461731612
202,1.6034477712285517352518194090221
203,1.6044422401299176348275400244386
204,1.6054318205789265373682855255188
205,1.6064165604159269866255764207846
206,1.6073965067823861302360339131244
207,1.6083717061344373702166560525615
208,1.6093422042561033663316809061298
209,1.6103080462722001351591627851668
210,1.6112692766609337404568052322208
211,1.6122259392661969337839361084281
212,1.6131780773095759725022609826483
213,1.6141257334020719930438566600866
214,1.6150689495555519151304100167143
215,1.6160077671939280831690026368764
216,1.6169422271640805992753855320192
217,1.6178723697465263069607106020177
218,1.6187982346658433979252034119914
219,1.6197198611008549148881114514766
220,1.6206372876945836585751383301958
221,1.6215505525639764011464004910300
222,1.6224596933094146034235585136509
223,1.6233647470240051967403865299055
224,1.6242657503026664887078446926003
225,1.6251627392510117494292112246502
226,1.6260557494940340160987155425907
227,1.6269448161846007588229143969180
228,1.6278299740117602178568667414167
229,1.6287112572088665643908767031740
230,1.6295886995615285711169355537080
231,1.6304623344153835818297911224471
232,1.6313321946837071889679229749892
233,1.6321983128548536045831578644682
234,1.6330607209995428707891010123262
235,1.6339194507779880807722637142750
236,1.6347745334468723091181937620290
237,1.6356259998661788715631609665149
238,1.6364738805058766451656566590016
239,1.6373182054524658844606950211453
240,1.6381590044153866869961962511225
241,1.6389963067332943895818887027792
242,1.6398301413802047511824437957789
243,1.6406605369715129532090544465411
244,1.6414875217698881054260796652088
245,1.6423111236910476305641265509552
246,1.6431313703094140461871827021477
247,1.6439482888636555255791323144473
248,1.6447619062621178181836042122242
249,1.6455722490881424980921975812719
250,1.6463793436052819246810972189740
251,1.6471832157624088148026243798991
252,1.6479838911987232244257501618592
253,1.6487813952486620113231500183826
254,1.6495757529467104350561939703476
255,1.6503669890321197736814540299794
256,1.6511551279535310419398270634697
257,1.6519401938735112016669190913041
258,1.6527222106729983084775643608401
259,1.6535012019556623975692948099201
260,1.6542771910521824943431639906420
261,1.6550502010244400628936861974793
262,1.6558202546696336170935010062088
263,1.6565873745243133441543197642099
264,1.6573515828683411908157086349336
265,1.6581129017287749366884848675133
266,1.6588713528836784217838903698857
267,1.6596269578658611407594213874231
268,1.6603797379665472368790808797316
269,1.6611297142389781648860213013082
270,1.6618769075019447462105162122237
271,1.6626213383432578997482942015965
272,1.6633630271231520270518861898624
273,1.6641019939776284943276644175505
274,1.6648382588217364195345509201766
275,1.6655718413527946394419290916366
276,1.6663027610535531342772367891910
277,1.6670310371953013932550213202057
278,1.6677566888409154749132373487672
279,1.6684797348478552647028854371720
280,1.6692001938711040226787132376317
281,1.6699180843660581100959577373242
282,1.6706334245913643911628379684671
283,1.6713462326117085223771223470827
284,1.6720565263005512859634541346389
285,1.6727643233428197746541088208495
286,1.6734696412375494525396708421649
287,1.6741724973004821512628972551974
288,1.6748729086666164033132201209385
289,1.6755708922927147604678208955102
290,1.6762664649597688298883303668919
291,1.6769596432754198687950947866015
292,1.6776504436763378226072580624054
293,1.6783388824305627123047765835161
294,1.6790249756398034079089988568116
295,1.6797087392416958752079104626339
296,1.6803901890120284812680564761367
297,1.6810693405669242904394796291680
298,1.6817462093649896675864965932188
299,1.6824208107094259913814510787866
300,1.6830931597501062282462119839182
301,1.6837632714856167783581995279003
302,1.6844311607652666866326591513735
303,1.6850968422910613917892091471132
304,1.6857603306196445910107647733833
305,1.6864216401642096487005713247925
306,1.6870807851963798125358832049534
307,1.6877377798480544187707146422434
308,1.6883926381132285652150601188952
309,1.6890453738497823411552256334364
310,1.6896960007812399493603661894118
311,1.6903445324985023150770481502388
312,1.6909909824615506951437346728558
313,1.6916353640011226799724358290024
314,1.6922776903203623926705904370001
315,1.6929179744964442049450864762063
316,1.6935562294821713454297190979036
317,1.6941924681075469390399610789341
318,1.6948267030813228285993129066453
319,1.6954589469925233202983912832504
320,1.6960892123119438542441528258904
321,1.6967175113936285190328416964468
322,1.6973438564763225247769355135643
323,1.6979682596849031486241938168507
324,1.6985907330317881299082037194108
325,1.6992112884183232769102168319917
326,1.6998299376361475224583233665300
327,1.7004466923685382491189354733712
328,1.7010615641917340731741611526781
329,1.7016745645762400622432895900544
330,1.7022857048881118182134409606613
331,1.7028949963902198640551778615295
332,1.7035024502434953957462882902320
333,1.7041080775081577778405740973083
334,1.7047118891449219666867645509973
335,1.7053138960161901762111785988159
336,1.7059141088872238442976136424237
337,1.7065125384272987719917059018423
338,1.7071091952108444943629030726638
339,1.7077040897185639475127844325258
340,1.7082972323385395230512481485104
341,1.7088886333673212235996475822179
342,1.7094783030109994164517114604217
343,1.7100662513862618231626888301984
344,1.7106524885214347387554264402669
345,1.7112370243575102998588105826999
346,1.7118198687491572765552094078818
347,1.7124010314657189532765936491127
348,1.7129805221921949104551434252158
349,1.7135583505302102518343685158486
350,1.7141345259989698197630590014531
351,1.7147090580361994860573605843178
352,1.7152819559990742007782940320450
353,1.7158532291651320832848004880822
354,1.7164228867331759700212150019519
355,1.7169909378241627843052235478003
356,1.7175573914820789378876558498476
357,1.7181222566748050033122009487826
358,1.7186855422949689010646821950827
359,1.7192472571607833466408456583224
360,1.7198074100168764954413918746885
361,1.7203660095351075303535792063403
362,1.7209230643153736736095386852109
363,1.7214785828864032185257136689703
364,1.7220325737065396051078165379053
365,1.7225850451645147758805509015446
366,1.7231360055802106896027581492027
367,1.7236854632054118848709764324967
368,1.7242334262245458823325562480394
369,1.7247799027554160580467191341427
370,1.7253249008499227011617670519564
371,1.7258684284947751092107158225591
372,1.7264104936121936774988379324660
373,1.7269511040606019492917506217565
374,1.7274902676353129352782676433582
375,1.7280279920692003938712657873739
376,1.7285642850333665285571657398493
377,1.7290991541377978914988041017547
378,1.7296326069320126607971523521013
379,1.7301646509057011312090099106852
380,1.7306952934893561750791036267368
381,1.7312245420548965489179177274962
382,1.7317524039162801637888893410000
383,1.7322788863301119941618586247512
384,1.7328039964962415889273635239519
385,1.7333277415583538058216644554631
386,1.7338501286045534279083966673376
387,1.7343711646679394114469780381626
388,1.7348908567271727019393577759358
389,1.7354092117070382930323211925646
390,1.7359262364789987173738766593642
391,1.7364419378617392863546831356999
392,1.7369563226217086871026363080131
393,1.7374693974736524102065425739406
394,1.7379811690811375892564734546189
395,1.7384916440570721090618052228168
396,1.7390008289642176334047966457669
397,1.7395087303156961822258028789748
398,1.7400153545754902663641515926629
399,1.7405207081589351456340019738028
400,1.7410247974332075101817732105588
401,1.7415276287178066340329786186492
402,1.7420292082850287460338410740246
403,1.7425295423604374389154015056249
404,1.7430286371233280095584258297441
405,1.7435264987071831958925460367239
406,1.7440231332001264194526355752647
407,1.7445185466453696503004858727101
408,1.7450127450416533974942377168101
409,1.7455057343436816861707535275382
410,1.7459975204625545357076857691983
411,1.7464881092661921989713942108072
412,1.7469775065797547452282702818462
413,1.7474657181860580657676053017541
414,1.7479527498259827260695325547501
415,1.7484386071988799484694624399511
416,1.7489232959629711549400952665807
417,1.7494068217357439184666174709695
418,1.7498891900943414862400869251402
419,1.7503704065759501531690895060033
420,1.7508504766781794676205859077893
421,1.7513294058594392215622553331741
422,1.7518071995393125066977506708721
423,1.7522838630989226727236439083056
424,1.7527594018812978014215995180877
425,1.7532338211917290759340033243326
426,1.7537071262981266520517142281959
427,1.7541793224313705161323020322752
428,1.7546504147856563433236935091340
429,1.7551204085188402684695140943698
430,1.7555893087527754317886810842076
431,1.7560571205736478029707823243303
432,1.7565238490323084331891070455763
433,1.7569894991445974729140787688298
434,1.7574540758916710534514008062294
435,1.7579175842203188558647318101647
436,1.7583800290432802682594692850893
437,1.7588414152395572927820962739847
438,1.7593017476547231843850852834812
439,1.7597610311012275026461891756282
440,1.7602192703586986478402365958305
441,1.7606764701742410411002551703588
442,1.7611326352627305122983879679994
443,1.7615877703071075433252069594432
444,1.7620418799586629861219477007358
445,1.7624949688373255861069203065187
446,1.7629470415319423353279001976637
447,1.7633981026005588244914639144936
448,1.7638481565706928120525823778933
449,1.7642972079396088508501853799656
450,1.7647452611745861247116132216583
451,1.7651923207131869981008343831046
452,1.7656383909635191201391143022635
453,1.7660834763044968260504954002900
454,1.7665275810860982249608640573952
455,1.7669707096296215979022612692535
456,1.7674128662279364030012906424457
457,1.7678540551457335835376992124270
458,1.7682942806197715747480039248412
459,1.7687335468591205232781868573915
460,1.7691718580454043616061211600184
461,1.7696092183330385871370277053526
462,1.7700456318494669589996291418516
463,1.7704811026953957162923032400277
464,1.7709156349450234786617344755838
465,1.7713492326462707979267921272313
466,1.7717818998210064914217716764363
467,1.7722136404652700375513706545834
468,1.7726444585494950491749777590746
469,1.7730743580187263014930070790401
470,1.7735033427928378389524575420624
471,1.7739314167667464282534769613012
472,1.7743585838106246550447945248280
473,1.7747848477701090151854957289021
474,1.7752102124665105045411102218482
475,1.7756346816970166300444792458084
476,1.7760582592348973558000726061809
477,1.7764809488297053172025718734989
478,1.7769027542074749790312680026955
479,1.7773236790709196268772240170008
480,1.7777437270996265864566499056098
481,1.7781629019502492216575273072351
482,1.7785812072566992800769750507796
483,1.7789986466303349660180791057885
484,1.7794152236601475606698552649207
485,1.7798309419129480663169586420448
486,1.7802458049335484593401608975444
487,1.7806598162449444007584743631978
488,1.7810729793484940007664212907901
489,1.7814852977240958653326422854237
490,1.7818967748303642878706522436092
491,1.7823074141048037201464461558864
492,1.7827172189639811104912805233143
493,1.7831261928036960842074587347749
494,1.7835343389991500600825727549210
495,1.7839416609051124953837179097237
496,1.7843481618560875036247942626205
497,1.7847538451664765304978837666052
498,1.7851587141307410330895092068201
499,1.7855627720235626595702814805595
500,1.785966022100003059690932426431
501,1.786368467595659071958770784733
502,1.786770111726820742503999613843
503,1.787170957690623643589641450589
504,1.787571008665203335425285827356
505,1.787970267809844818569934099146
506,1.788368738265132706827401111641
507,1.788766423153099968473512127536
508,1.789163325577374875583349758233
509,1.789559448623324392154258083065
510,1.789954795358200054061832731424
511,1.790349368831279571726917458965
512,1.790743172074008055485625060415
513,1.791136208100137479197749271865
514,1.791528479905865058353891555422
515,1.791919990469970916775824079155
516,1.792310742753953252098676438204
517,1.792700739702162074622576308199
518,1.793089984241933304771194057380
519,1.793478479283720010952505405719
520,1.793866227721223644677220219507
521,1.794253232431522068016281130290
522,1.794639496275198649452511653957
523,1.795025022096468865135354833307
