Eigenstate,Potential Energy
1,0.500000000125085086777550485568487758
2,0.64623093846760803137657524492578612
3,0.73633761210337336484714644760362898
4,0.79966528280986813159387827210848761
5,0.8480465839392280596247622496444177
6,0.8870660102610137324409342333158542
7,0.9197208432204273626337678445126611
8,0.9477838691981794543272513241245231
9,0.9723835872028017321977175829337591
10,0.9942802513843569244768847544491285
11,1.0140094318849665912219335639047343
12,1.0319622240101153681597496911431851
13,1.0484327578263367449509889694539612
14,1.0636477310174286881985082446436891
15,1.0777855246986711698151430479303054
16,1.090989008287291813671252825744442
17,1.103374372963983728047496570367840
18,1.115037382679114117304374377482124
19,1.126057897256708279017218720225318
20,1.136503210028390602440530121809588
21,1.146430553915085069237186638261169
22,1.155889012585757856149360394380171
23,1.164920998393943858537060347275248
24,1.173563409778170287059755211123277
25,1.181848548057884183390306345672190
26,1.189804851241041063748394665560761
27,1.197457486986681474614263537876547
28,1.204828835963971420029815319234929
29,1.211938889054154787427215910011542
30,1.218805576192378321920586702744526
31,1.225445040500411193424921722766813
32,1.231871868283381612278788779634986
33,1.238099283154005142029005080486909
34,1.244139310797233089755148732676096
35,1.250002919549054287038180330199284
36,1.255700140929704694952331226512958
37,1.261240173467454717057303457427402
38,1.266631472518725360552739602503770
39,1.271881828292435735721660367168336
40,1.276998433890663599843683878978421
41,1.281987944860950377724845214712209
42,1.286856531500589489239827103184477
43,1.291609924946750469171552031685468
44,1.296253457918197348974241957099419
45,1.300792100836790200965572311449971
46,1.305230493943822462760722729856519
47,1.309572975932770047349196106529932
48,1.313823609542441879902291937127225
49,1.317986204489858958449131858432213
50,1.32206433806806632186206460005923
51,1.32606137368861534608402682240646
52,1.32998047761010857520070519195616
53,1.33382463406174917538953130152146
54,1.33759665894327596830068025005486
55,1.34129921225918950789577464894993
56,1.34493480942510009463019990253529
57,1.34850583156682965573337636594442
58,1.35201453491810223404048797609646
59,1.35546305940990388054421815739401
60,1.35885343653356823812611612789229
61,1.36218759655007987641570977148722
62,1.36546737510978643260698498613190
63,1.36869451933946872403619095398295
64,1.37187069344740551839905769503518
65,1.37499748389153480750966926428975
66,1.37807640415096609144566552293509
67,1.38110889913683588859650639301499
68,1.38409634927474252632086325616154
69,1.38704007428768359619083988462036
70,1.38994133670549118953433121992111
71,1.39280134512416132525586253050215
72,1.39562125723617573953370993758233
73,1.39840218265086120058823920776666
74,1.40114518552201266316167240061438
75,1.40385128699837547624685769179865
76,1.40652146751113230084590787277366
77,1.40915666891123799612205460252276
78,1.41175779646827993412701516898215
79,1.41432572074149438329394567530157
80,1.41686127933263147524110289796236
81,1.41936527852951192795559257065143
82,1.42183849484835724787189167944055
83,1.42428167648228639957130462146639
84,1.42669554466274764011179430310882
85,1.42908079494009493882458232454417
86,1.43143809838900253802429003242936
87,1.43376810274395373928059722137850
88,1.43607143346961662216314727190094
89,1.43834869477053590021066136757993
90,1.44060047054422690214622169601386
91,1.44282732528143621431085084991066
92,1.44502980491704522274771019015731
93,1.44720843763483053831537387776424
94,1.44936373462905235947002603391545
95,1.45149619082562067332844802108940
96,1.45360628556538737350731664410598
97,1.45569448325192803112609548692431
98,1.45776123396600418106535550814433
99,1.45980697404874351338539555382230
100,1.46183212665542901939305202486824
101,1.46383710228165883769198277008001
102,1.46582229926351297083035658518022
103,1.46778810425325512954805199777014
104,1.46973489267199069691625314876442
105,1.47166302914060873090482623113745
106,1.47357286789024515967118735092849
107,1.47546475315342624190899075695828
108,1.47733901953697212504128599083287
109,1.47919599237767174050998578989941
110,1.48103598808167785528843234834392
111,1.48285931444850523754659767409501
112,1.48466627098046546076597149287222
113,1.48645714917831633480721306437696
114,1.48823223282385519467885152030869
115,1.48999179825014482925352011485249
116,1.49173611460001250053037007569000
117,1.49346544407343079103694983423975
118,1.49518004216434798585914158932308
119,1.49688015788750198207175672792960
120,1.49856603399572587610957476284824
121,1.50023790718821511237396958388674
122,1.50189600831020716323935885075562
123,1.50354056254449251769252351497658
124,1.50517178959515807602989282783437
125,1.50678990386393448177627084579926
126,1.50839511461950372469163367840898
127,1.50998762616010277084748033244572
128,1.51156763796973638856523937084355
129,1.51313534486830026577250849966292
130,1.51469093715589713246636489207253
131,1.51623460075161319785642348311452
132,1.51776651732700723456094423760664
133,1.51928686443455286064500502979816
134,1.52079581563126329433466471641654
135,1.52229354059770974789742175912657
136,1.52378020525264093965093672181112
137,1.52525597186339789512065114507051
138,1.52672099915230459637615130950242
139,1.52817544239921293267247378089525
140,1.52961945354036495955615880389401
141,1.53105318126373091610584462243789
142,1.53247677110097337671307075914334
143,1.53389036551617926364026760078235
144,1.53529410399149426695727094199613
145,1.53668812310979003070018330915006
146,1.53807255663448659534732885606502
147,1.53944753558664438374243469923114
148,1.54081318831944105956227368398533
149,1.54216964059013505935567678183995
150,1.54351701562961943910209706558774
151,1.54485543420966194961911225599504
152,1.54618501470792164006220849315316
153,1.54750587317083093928744569177408
154,1.54881812337442711439580329773107
155,1.55012187688321134253102539586917
156,1.55141724310711326237402464068594
157,1.55270432935663205201854058684670
158,1.55398324089622585141261037605034
159,1.5552540809960132022831345946336
160,1.5565169509818528431691390850389
161,1.5577719502838603557700112753689
162,1.5590191764834211237994662398135
163,1.5602587253587544577341073739250
164,1.5614906909290835221450606629828
165,1.5627151654974596659245517364820
166,1.5639322396922916710928084128491
167,1.5651420025076271526033709473357
168,1.5663445413422287981622633352151
169,1.5675399420374905102540787370752
170,1.5687282889142331935967404130900
171,1.5699096648084203825936357259511
172,1.5710841511058315755510923310037
173,1.5722518277757286781044548222657
174,1.5734127734035513994829786385603
175,1.5745670652226755866625479169745
176,1.5757147791452642028807516655678
177,1.5768559897922442111733748707986
178,1.5779907705224385174542872397794
179,1.5791191934608794182129387509912
180,1.5802413295263344993589724430460
181,1.5813572484580676349329677071648
182,1.5824670188418627812062963082724
183,1.5835707081353336155825425605596
184,1.5846683826925432619784140132137
185,1.5857601077879559109543954410144
186,1.5868459476397413033597676221134
187,1.5879259654324558781429625132219
188,1.5890002233391160207954399092301
189,1.5900687825426871436733841761932
190,1.5911317032570042494333361314535
191,1.5921890447471432002942775637050
192,1.5932408653492590754924476524117
193,1.5942872224899099209431344541179
194,1.5953281727048792320615157367212
195,1.5963637716575151022743497068557
196,1.5973940741565997292973170511303
197,1.5984191341737636546787584625933
198,1.5994390048604588987708607355368
199,1.6004537385645038251698028616200
200,1.6014633868462136750131762538158
201,1.6024680004941277477464022226191
202,1.6034676295403466047087364644598
203,1.6044623232754899504589534030293
204,1.6054521302632868069511035164191
205,1.6064370983548079461203869890596
206,1.6074172747023535998327915807105
207,1.6083927057730023180825631313521
208,1.6093634373618351971061851408771
209,1.6103295146048412205111305970264
210,1.6112909819915152092912663729949
211,1.6122478833771557399649654188386
212,1.6132002619948732582427223973506
213,1.6141481604673127664020370415612
214,1.6150916208181060603479017483051
215,1.6160306844830527228840170438561
216,1.6169653923210438279529482233477
217,1.6178957846247323151905770322138
218,1.6188219011309590075566558382554
219,1.6197437810309375452954086555893
220,1.6206614629802107446743058029050
221,1.6215749851083762841214579500499
222,1.6224843850285989154623040322683
223,1.6233896998469027614275921425846
224,1.6242909661712587590790958782135
225,1.6251882201204698060515582043124
226,1.6260814973328571479121999658499
227,1.6269708329747566498528631110436
228,1.6278562617488267632911135960241
229,1.6287378179021753399063962924319
230,1.6296155352343099797370215962516
231,1.6304894471049137030013657454432
232,1.6313595864414563549603982074132
233,1.6322259857466367297325488846209
234,1.6330886771056715595416279637255
235,1.6339476921934245409195516212215
236,1.6348030622813850970631306909848
237,1.6356548182445004969120892726336
238,1.6365029905678630624065414917259
239,1.6373476093532578999609535395707
240,1.6381887043255733100382788786228
241,1.6390263048390781566463373427309
242,1.6398604398835690531907651715492
243,1.6406911380903913959534015182080
244,1.6415184277383359339337141266877
245,1.6423423367594152486782812970681
246,1.6431628927445226631927997484445
247,1.6439801229489749622526544182180
248,1.6447940542979465052162710332296
249,1.6456047133917897004116293194399
250,1.6464121265112522257873122710556
251,1.6472163196225888958352059917852
252,1.6480173183825709732916900521632
253,1.6488151481433979978432227858916
254,1.6496098339575117887259486012866
255,1.6504014005823165012945264041505
256,1.6511898724848048229881674470267
257,1.6519752738460967001112070160193
258,1.6527576285658870401747365423357
259,1.6535369602668091933524112188324
260,1.6543132922987145994709595049190
261,1.6550866477428689143249207836333
262,1.6558570494160693407953015523420
263,1.6566245198746820154210648911029
264,1.6573890814186049013615633672928
265,1.6581507560951547130774108841579
266,1.6589095657028800405801381596995
267,1.6596655317953038866167746473030
268,1.6604186756845956506418704766226
269,1.6611690184451768296458837839242
270,1.6619165809172561601538551078490
271,1.6626613837103034855389588154870
272,1.6634034472064563284225498655697
273,1.6641427915638666115030495337756
274,1.6648794367199847360787841237800
275,1.6656134023947848941126587116990
276,1.6663447080939298924823402453698
277,1.6670733731118829737413825177033
278,1.6677994165349583883733907224950
279,1.6685228572443222220663197587493
280,1.6692437139189355719571761009759
281,1.6699620050384479617805776494930
282,1.6706777488860384933241377057341
283,1.6713909635512079477959201708708
284,1.6721016669325189948271630394823
285,1.6728098767402913175832023221630
286,1.6735156104992476799665795285995
287,1.6742188855511159964760863358257
288,1.6749197190571838077919286120658
289,1.6756181280008098114795174365294
290,1.6763141291898931816976202280312
291,1.6770077392592985202391725974043
292,1.6776989746732393252313825742751
293,1.6783878517276238847263005174195
294,1.6790743865523586335804968616364
295,1.6797585951136110622886637240818
296,1.6804404932160397648951041875117
297,1.6811200965049815592952061146303
298,1.6817974204686049983102285548171
299,1.6824724804400270760602419992067
300,1.6831452915993948819470819886475
301,1.6838158689759326154293206525054
302,1.6844842274499560563099450934833
303,1.6851503817548516654938563798913
304,1.6858143464790238956203086678497
305,1.6864761360678121420107064747271
306,1.6871357648253765991185058771451
307,1.6877932469165502064629901396504
308,1.6884485963686641645564391471633
309,1.6891018270733431122160359193974
310,1.6897529527882703025906480359656
311,1.6904019871389263750349100519030
312,1.6910489436202992382494198276800
313,1.6916938355985664597790211716431
314,1.6923366763127519685390073841127
315,1.6929774788763563924708686149882
316,1.6936162562789624094852354563844
317,1.6942530213878126528769645462442
318,1.6948877869493655250985527762422
319,1.6955205655908260641600850434494
320,1.6961513698216518666893770607264
321,1.6967802120350379894290419762133
322,1.6974071045093769465152737904314
323,1.6980320594096973195645680070559
324,1.6986550887890799607694116591486
325,1.6992762045900535541197782436333
326,1.6998954186459677751992857329390
327,1.7005127426823468736046565968310
328,1.7011281883182208705710709028588
329,1.7017417670674393501273472425825
330,1.7023534903399642790048092688891
331,1.7029633694431432975260450031895
332,1.7035714155829645464368214237932
333,1.7041776398652934120625399468066
334,1.7047820532970893777282899615537
335,1.7053846667876073003996443620320
336,1.7059854911495791747237511138572
337,1.7065845371003792609533580794816
338,1.7071818152631736399529621951905
339,1.7077773361680502642577421494814
340,1.7083711102531356011028270625805
341,1.7089631478656935857116057911897
342,1.7095534592632093868134672461963
343,1.7101420546144576271406383444013
344,1.7107289440005550577044459820096
345,1.7113141374159995104098095266799
346,1.7118976447696926091755313362318
347,1.7124794758859498104345933247853
348,1.7130596405054945904041542119294
349,1.7136381482864403298665422384747
350,1.7142150088052574447939988585380
351,1.7147902315577278565499471813135
352,1.7153638259598864903635700529001
353,1.7159358013489490929325774766169
354,1.7165061669842277903124954552845
355,1.7170749320480347582254353209776
356,1.7176421056465722216327042716267
357,1.7182076968108120298613986722006
358,1.7187717144973640587436737868072
359,1.7193341675893291925811290555483
360,1.7198950648971458317366116733544
361,1.7204544151594216788420241459993
362,1.7210122270437572935594943908632
363,1.7215685091475560201003168573323
364,1.7221232699988253203243477254519
365,1.7226765180569677578798074491664
366,1.7232282617135605203969180501827
367,1.7237785092931263813772943040879
368,1.7243272690538929004141973155385
369,1.7248745491885445044806244832978
370,1.7254203578249631739655503074400
371,1.7259647030269605975674801461217
372,1.7265075927950007636626198663325
373,1.7270490350669129663173716705974
374,1.7275890377185995462304066780402
375,1.7281276085647290703308998831355
376,1.7286647553594264187745390061488
377,1.7292004857969515814531866172829
378,1.7297348075123703447160883506971
379,1.7302677280822187218157536498653
380,1.7307992550251578979543115167669
381,1.7313293958026225799240687501130
382,1.7318581578194598835115103635796
383,1.7323855484245634487974898377311
384,1.7329115749114977629961007994718
385,1.7334362445191163285392325431621
386,1.7339595644321743520135188173607
387,1.7344815417819317207834980887690
388,1.7350021836467502221477065289187
389,1.7355214970526856983251772722775
390,1.7360394889740723455956325952654
391,1.7365561663340994943567002226978
392,1.7370715360053844989354662910370
393,1.7375856048105392317645677326225
394,1.7380983795227287848254365070265
395,1.7386098668662252577466402622560
396,1.7391200735169563066703198656348
397,1.7396290061030481078184294082256
398,1.7401366712053627686894489215460
399,1.7406430753580287783028280047588
400,1.7411482250489688229361414180906
401,1.7416521267204210436207363329002
402,1.7421547867694545089074376626072
403,1.7426562115484817528629785512703
404,1.7431564073657663016103209817241
405,1.7436553804859226851079429086828
406,1.7441531371304150755145533766313
407,1.7446496834780517022795987252645
408,1.7451450256654725817266222441936
409,1.7456391697876334579764592621713
410,1.7461321218982885067012176823424
411,1.7466238880104661000229456886905
412,1.7471144740969412547984461833688
413,1.7476038860907058843884622336556
414,1.7480921298854333202578752230981
415,1.7485792113359414313693404874604
416,1.7490651362586508165749711003977
417,1.7495499104320409657209109527704
418,1.7500335395971016016023687115216
419,1.7505160294577835319707261101008
420,1.7509973856814440460495270447113
421,1.7514776138992908621883823705727
422,1.7519567197068239647145623710502
423,1.7524347086642732246533210921275
424,1.7529115862970354787581382904917
425,1.7533873580961075091676691352249
426,1.7538620295185185958679928492351
427,1.7543356059877601943777547420708
428,1.7548080928942128226858912216634
429,1.7552794955955741428700550149076
430,1.7557498194172811752985552814321
431,1.7562190696529342278112595696568
432,1.7566872515647197711469059827935
433,1.7571543703838276834569846926749
434,1.7576204313108740500813276853488
435,1.7580854395163174339622964678711
436,1.7585494001408766130070755584042
437,1.7590123182959480448485378047298
438,1.7594741990640221441010049887898
439,1.7599350474990991605605514319855
440,1.7603948686271058410315120914120
441,1.7608536674463101505857277771753
442,1.7613114489277377375795936091128
443,1.7617682180155899157362641042893
444,1.7622239796276579134204710975876
445,1.7626787386557428569375461062055
446,1.7631324999660726540165363588228
447,1.7635852683997230943939532753689
448,1.7640370487730365396367309958160
449,1.7644878458780462031432732498558
450,1.7649376644828983400207741344958
451,1.7653865093322800243132956850901
452,1.7658343851478455367979644369030
453,1.7662812966286472961539804999360
454,1.7667272484515679203949104948749
455,1.7671722452717572490521193330338
456,1.7676162917230698387651493785526
457,1.7680593924185078531918077270942
458,1.7685015519506659783368850131949
459,1.7689427748921811229175334448509
460,1.7693830657961868028826364087371
461,1.7698224291967703281483047229069
462,1.7702608696094362851846056669896
463,1.7706983915315752126164505015744
464,1.7711349994429359376562013959639
465,1.7715706978061058632224960137802
466,1.7720054910669966725351927460654
467,1.7724393836553350835284876542042
468,1.7728723799851640371742009145963
469,1.7733044844553471823227495969401
470,1.7737357014500845859774796509364
471,1.7741660353394343598800780277589
472,1.7745954904798449453392065154089
473,1.7750240712146938730977107362655
474,1.7754517818748409909990107143390
475,1.7758786267791855950445149579779
476,1.7763046102352405159612450256587
477,1.7767297365397140594589909281036
478,1.7771540099791050697954471403444
479,1.7775774348303106296931436611200
480,1.7780000153612474466435254934898
481,1.7784217558314861655842832946500
482,1.7788426604929029013756754226774
483,1.7792627335903441334795189422831
484,1.7796819793623085848654604235456
485,1.7801004020416484066399594244796
486,1.7805180058562851426530908123205
487,1.7809347950299482598488475240839
488,1.7813507737829318283626098379323
489,1.7817659463328736204840355506343
490,1.7821803168955555894568361502755
491,1.7825938896857290206197741793686
492,1.7830066689179641655717897407271
493,1.7834186588075256250248155902992
494,1.7838298635712759377524949136045
495,1.7842402874286070086783522649542
496,1.7846499346024041433956418143436
497,1.7850588093200399850704912583374
498,1.7854669158144040028345966609222
499,1.7858742583249668323452445362472
500,1.786280841098883508495048106109
501,1.786686668392133359193129554070
502,1.787091744470706159118619743203
503,1.787496073611828284632928344325
504,1.787899660105239124844728070304
505,1.788302508254513155111146473374
506,1.788704622378436119949758237386
507,1.789106006812436059422587691213
508,1.789506665910071886174358555057
509,1.789906604044581005412308423370
510,1.790305825610495500715099518922
511,1.790704335025323809703176960308
512,1.791102136731305722618903938036
513,1.791499235197243509998524310976
514,1.791895634920414323168710689071
515,1.792291340428569006982160633160
516,1.792686356282020620680873181005
517,1.793080687075829172318108778078
518,1.793474337442090154551147232126
519,1.793867312052329867201300811248
520,1.794259615620017019513723914130
521,1.794651252903194510385104818324
522,1.795042228707243270464373907941
523,1.795432547887782756485086468494
