Eigenstate,Potential Energy
1,0.500000000050335676613123114718285316
2,0.64623093797967982852275729795106586
3,0.73633761067010992078516084411679488
4,0.79966527982450488407396965301743907
5,0.8480465787678815866321101738124250
6,0.8870660022586521129293519866338687
7,0.9197208317367464551116600269759980
8,0.9477838535800461042584926760099600
9,0.9723835667953830252283307253922663
10,0.9942802255316870270447523123189457
11,1.0140093999302488241331073766937676
12,1.0319621852958893500752205219065915
13,1.0484327116945720705379639391622271
14,1.0636476768095763178731882302166001
15,1.0777854617556892985736755664086686
16,1.090988935949655699693595488028478
17,1.103374290571685077960629188117742
18,1.115037289571653458383102414289351
19,1.126057792773082490790818975709196
20,1.136503093507077023881892934650294
21,1.146430424694023128607836666977111
22,1.155888870002328871424116534603591
23,1.164920841784949460761346614410507
24,1.173563238479809788240895539946877
25,1.181848361405731121317098651020027
26,1.189804648570019094137955705165495
27,1.197457267631039737169206985794804
28,1.204828599257259473539966405368969
29,1.211938634329197186155053106107125
30,1.218805302781248888622300883422996
31,1.225444747734407031750931490190639
32,1.231871555492996891778030050278630
33,1.238098949668904681717915260917782
34,1.244138955946225760615822223773001
35,1.250002542660066249458377156286435
36,1.255699741329752483706824818271318
37,1.261239750482618183731043647777284
38,1.266631025474120481155757240307368
39,1.271881356512187289519422798446958
40,1.276997936697877724031331664225723
41,1.281987421577687001438592666689826
42,1.286855981447834649469121886309307
43,1.291609347444388510369666636257157
44,1.296252852284983007530158674694040
45,1.300791466390320575170661550217016
46,1.305229830000508868459863670652795
47,1.309572281807809759091857445153211
48,1.313822884549789757091626992041217
49,1.317985447942198955716558029544810
50,1.32206354927678288266289142878716
51,1.32606055196376467830942888494563
52,1.32997962226038980742796739437883
53,1.33382374439447539224115509810728
54,1.33759573426434512325012002972960
55,1.34129825187305521174044107013903
56,1.34493381263474227774830065793397
57,1.34850479767372510214834568901053
58,1.35201346322219498523287210521707
59,1.35546194920957550687564796466720
60,1.35885228712560797567088814469079
61,1.36218640722965462693252625341121
62,1.36546614517041062432500530773268
63,1.36869324807297403087567328760378
64,1.37186938014391043519638702118396
65,1.37499612783941407876885317458245
66,1.37807500463681999109370669315125
67,1.38110745544545934817728656308272
68,1.38409486068909410902129760637298
69,1.38703854008885431405357324471337
70,1.38993975617267316117371933298572
71,1.39279971753461627135648519338371
72,1.39561958186520331337528112022665
73,1.39840045877176715080501711310939
74,1.40114341240607682591022019364757
75,1.40384946391481959392148935019260
76,1.40651959372708766444772907847021
77,1.40915474369171290835362774011886
78,1.41175581907612699025139143527598
79,1.41432369043737756676348486485493
80,1.41685919537499306506844206561410
81,1.41936314017453921476537256900549
82,1.42183630134994905553896235595491
83,1.42427942709201940931712199652947
84,1.42669323862984251389726532850155
85,1.42907843151138223884342413387507
86,1.43143567680888843906697110576083
87,1.43376562225438553070397397780824
88,1.43606889331004799616627295761202
89,1.43834609417789202308192408321593
90,1.44059780875286926511133547703408
91,1.44282460152312726057473367738505
92,1.44502701842091274728734836763541
93,1.44720558762733185694315567509170
94,1.44936082033393824364982453365230
95,1.45149321146389904718857202565081
96,1.45360324035528676945602945795822
97,1.45569137140886080043591328117895
98,1.45775805470252945575315599429486
99,1.45980372657452991567449579932643
100,1.46182881017721711500304126787050
101,1.46383371600322332916016392929983
102,1.46581884238562462702681171114039
103,1.46778457597364244750346151911840
104,1.46973129218530129203780071962167
105,1.47165935563837045161190198012509
106,1.47356912056082692243730713403820
107,1.47546093118199858265092862424817
108,1.47733512210546746275021651018822
109,1.47919201866474434897208689157690
110,1.48103193726266353869492653025441
111,1.48285518569538070574447815165367
112,1.48466206346180739985106282238560
113,1.48645286205926016871148658621978
114,1.48822786526605353335269549758305
115,1.48998734941172559899152662546028
116,1.49173158363553675193710701681877
117,1.49346083013385018007523973909333
118,1.49517534439696192336889158033718
119,1.49687537543591444709256368786194
120,1.49856116599980188828336079195144
121,1.50023295278403685864730961012401
122,1.50189096663002977402680997408837
123,1.50353543271669948760319385299572
124,1.50516657074421632419956468533921
125,1.50678459511034904678611898426900
126,1.50838971507977208899277491527977
127,1.50998213494666880954722338801950
128,1.51156205419094393736708418318230
129,1.51312966762834630279637013718110
130,1.51468516555478456860954435660983
131,1.51622873388510327028826755123379
132,1.51776055428657149787538124249902
133,1.51928080430732477012623717214645
134,1.52078965749998937571936789962099
135,1.52228728354070034794567733015507
136,1.52377384834372055176469803296027
137,1.52524951417185505417378557079731
138,1.52671443974284133684455677085992
139,1.52816878033189380407614670596038
140,1.52961268787056559314612479401685
141,1.53104631104208613665008815890376
142,1.53246979537332485315420375000270
143,1.53388328332352269231529919487066
144,1.53528691436992608098657795742990
145,1.53668082509045362906760854186300
146,1.53806514924351808510664371348467
147,1.53944001784511782869734652254575
148,1.54080555924331322867842147683505
149,1.54216189919018966807093455540925
150,1.54350916091141087661030686840430
151,1.54484746517345848510707607702706
152,1.54617693034864810078500291232951
153,1.54749767247801085326923062199942
154,1.54880980533212431044485661979207
155,1.55011344046997100015662300333343
156,1.55140868729590240409077528428721
157,1.55269565311477947041940289804650
158,1.55397444318536146328601741243210
159,1.5552451607720068219424672235498
160,1.5565079071947523670522197202510
161,1.5577627818778293502558400993907
162,1.5590098823966758080754783646608
163,1.5602493045235000734324271750807
164,1.5614811422714500813485421784078
165,1.5627054879374370690242274027059
166,1.5639224321436641858570155387261
167,1.5651320638779072456957935416630
168,1.5663344705325903102196931051305
169,1.5675297379427011655075891825901
170,1.5687179504225864348899314973108
171,1.5698991908016665225188657077521
172,1.5710735404591082542907059556588
173,1.5722410793574906184270206901992
174,1.5734018860754994492043498652862
175,1.5745560378396850387413066368483
176,1.5757036105553123831720529103725
177,1.5768446788363373237192291268527
178,1.5779793160345377370390387509122
179,1.5791075942678262197600026844350
180,1.5802295844477752135907535588487
181,1.5813453563063772195590149021412
182,1.5824549784220677967433954253335
183,1.5835585182450343947484010569807
184,1.5846560421218352614347004274488
185,1.5857476153193502340046275643224
186,1.5868333020480843820380796824530
187,1.5879131654848483029529768398003
188,1.5889872677948305061806530920550
189,1.5900556701530856171201086523997
190,1.5911184327654540519220344138375
191,1.5921756148889323856272393531624
192,1.5932272748515107958347948143212
193,1.5942734700714958857194937224158
194,1.5953142570763322271526442981403
195,1.5963496915209405562555006277725
196,1.5973798282055863132557071698788
197,1.5984047210932929019375187162542
198,1.5994244233268138306345694259897
199,1.6004389872451765685887518352442
200,1.6014484643998120578437675349724
201,1.6024529055702808570601809444878
202,1.6034523607796092933718159268316
203,1.6044468793092462769730213852945
204,1.6054365097136523933071899527858
205,1.6064212998345312381765220915523
206,1.6074012968147160144788478434586
207,1.6083765471117172612051763382817
208,1.6093470965109459361117347838806
209,1.6103129901386175949025304533117
210,1.6112742724743491625308293339783
211,1.6122309873634556555843998323434
212,1.6131831780289570828862242438866
213,1.6141308870832999022079798983299
214,1.6150741565398080087887024053078
215,1.6160130278238624618933208310528
216,1.6169475417838239038709593611593
217,1.6178777387017016307579779094686
218,1.6188036583035782868788922096010
219,1.6197253397697934563839514702106
220,1.6206428217448986598536588467043
221,1.6215561423473816582636961874913
222,1.6224653391791772616779947472288
223,1.6233704493349582035046324778275
224,1.6242715094112211396156601818305
225,1.6251685555151703288763201583917
226,1.6260616232734025330277940264394
227,1.6269507478404017787727886437753
228,1.6278359639068457922669496419987
229,1.6287173057077312581626250798573
230,1.6295948070303225894445613184742
231,1.6304685012219259973240371472572
232,1.6313384211974992701073927849554
233,1.6322045994470922465393824116098
234,1.6330670680431341296826710120224
235,1.6339258586475608124292223658709
236,1.6347810025187919134073525074879
237,1.6356325305185611434072635020669
238,1.6364804731186017333310469985624
239,1.6373248604071923592424292851518
240,1.6381657220955657179281884307786
241,1.6390030875241840343141267839074
242,1.6398369856688843566794796098528
243,1.6406674451468976704377939531950
244,1.6414944942227435187131112187759
245,1.6423181608140045028166629092888
246,1.6431384724969831811847093967291
247,1.6439554565122427485564664655783
248,1.6447691397700390759400401547407
249,1.6455795488556390798750049678375
250,1.6463867100345358051061311855770
251,1.6471906492575581200890785543917
252,1.6479913921658778232360670634476
253,1.6487889640959192315143740589693
254,1.6495833900841709076639250895100
255,1.6503746948719034054720529992124
256,1.6511629029097931178827418340909
257,1.6519480383624586186936579700273
258,1.6527301251129059419100264739166
259,1.6535091867668896016156310864621
260,1.6542852466571897380762444114972
261,1.6550583278478057031428495795017
262,1.6558284531380708096971485057172
263,1.6565956450666870950377353547242
264,1.6573599259156855483753434047599
265,1.6581213177143103269814962829161
266,1.6588798422428291280386679137917
267,1.6596355210362729287412432700139
268,1.6603883753881051276625136147903
269,1.6611384263538243566040370495733
270,1.6618856947544966863689154716030
271,1.6626302011802265097121434451693
272,1.6633719659935600803307122720597
273,1.6641110093328291503041291551272
274,1.6648473511154319143020867751238
275,1.6655810110410551354352773489008
276,1.6663120085948357304009336389851
277,1.6670403630504692972346750745526
278,1.6677660934732573396150413687084
279,1.6684892187231046901877743983579
280,1.6692097574574592257789939157232
281,1.6699277281342017633229791148990
282,1.6706431490144836327768559473161
283,1.6713560381655151394720405252499
284,1.6720664134633020724415841043769
285,1.6727742925953370659891743185827
286,1.6734796930632418392484805498724
287,1.6741826321853653730300706802022
288,1.6748831270993344257371152561342
289,1.6755811947645610364188622518815
290,1.6762768519647077474966065051574
291,1.6769701153101083881072943268491
292,1.6776610012401473029795124148845
293,1.6783495260256009326217944473984
294,1.6790357057709367817472723136863
295,1.6797195564165718630850793531026
296,1.6804010937410982021484133176310
297,1.6810803333634653346918541876978
298,1.6817572907451291136178036487519
299,1.6824319811921636281969927696901
300,1.6831044198573379862160376934276
301,1.6837746217421583704968702289418
302,1.6844426016988774627286858497902
303,1.6851083744324684077496139682197
304,1.6857719545025668958161526591500
305,1.6864333563253827913957905524839
306,1.6870925941755805717118592306980
307,1.6877496821881257570244520884408
308,1.6884046343601048111055938015243
309,1.6890574645525146012057191774828
310,1.6897081864920217526881608748742
311,1.6903568137726954932671535885252
312,1.6910033598577115000136913177677
313,1.6916478380810281419107758604225
314,1.6922902616490369222649391146684
315,1.6929306436421864406511851664283
316,1.6935689970165812500673867228192
317,1.6942053346055531479379733876839
318,1.6948396691212102522479015575998
319,1.6954720131559610044042036382972
320,1.6961023791840131001201798879054
321,1.6967307795628512672940728556026
322,1.6973572265346900053503898442955
323,1.6979817322279048001215643607162
324,1.6986043086584407914487189829670
325,1.6992249677312006555216577179065
326,1.6998437212414099392252044913609
327,1.7004605808759626672875208984864
328,1.7010755582147444114671736356245
329,1.7016886647319377966789910610529
330,1.7022999117973068757677116797734
331,1.7029093106774618115486379508105
332,1.7035168725371049273837407274975
333,1.7041226084402585048750878628433
334,1.7047265293514725127266301469554
335,1.7053286461370165817350390013164
336,1.7059289695660522839904607731144
337,1.7065275103117885885621812699339
338,1.7071242789526215525519289242156
339,1.7077192859732543120522812291481
340,1.7083125417658034643831576805402
341,1.7089040566308875552156715721305
342,1.7094938407787001677669843088241
343,1.7100819043300672518888734891336
344,1.7106682573174886867921544478302
345,1.7112529096861658967775403688462
346,1.7118358712950129948039059327601
347,1.7124171519176550192904207770068
348,1.7129967612434100759150852905943
349,1.7135747088782589293735590452977
350,1.7141510043457995874793154116039
351,1.7147256570881889652503802333150
352,1.7152986764670713113903435343173
353,1.7158700717644926815850315929859
354,1.7164398521838028731374383588750
355,1.7170080268505451862686042003529
356,1.7175746048133322219224335458725
357,1.7181395950447109551664927042979
358,1.7187030064420163282455099748937
359,1.7192648478282091084847464440164
360,1.7198251279527069490198509281996
361,1.7203838554922003972825531090350
362,1.7209410390514603329039208083260
363,1.7214966871641314307108683433509
364,1.7220508082935166728734462671929
365,1.7226034108333511466375655303394
366,1.7231545031085640053785370475541
367,1.7237040933760314850550838741227
368,1.7242521898253177648638480503354
369,1.7247988005794083047116111343779
370,1.7253439336954313727536819599941
371,1.7258875971653706163833465422736
372,1.7264297989167676332286895789725
373,1.7269705468134145089500127181972
374,1.7275098486560406303981570061297
375,1.7280477121829844657845013197549
376,1.7285841450708617681614375657140
377,1.7291191549352219915095161736232
378,1.7296527493311960869272901255816
379,1.7301849357541375188149286326870
380,1.7307157216402532579046641177413
381,1.7312451143672276266660030810774
382,1.7317731212548361153469997132070
383,1.7322997495655538434081694859145
384,1.7328250065051536301453159167330
385,1.7333488992232972958534971670156
386,1.7338714348141208522832177688203
387,1.7343926203168093318251894427749
388,1.7349124627161651923236955615008
389,1.7354309689431709723055659817108
390,1.7359481458755433858353700694787
391,1.7364640003382791740416029694410
392,1.7369785391041963217976407956105
393,1.7374917688944681131513000443453
394,1.7380036963791486067097281830796
395,1.7385143281776923879634476712726
396,1.7390236708594682495302303633277
397,1.7395317309442664293407723185921
398,1.7400385149027994150197294853123
399,1.7405440291571948803697672113818
400,1.7410482800814850540394385628640
401,1.7415512740020885694164705332539
402,1.7420530171982855410894187798859
403,1.7425535159026886887457555374666
404,1.7430527763017084017239024839221
405,1.7435508045360092098015696494144
406,1.7440476067009637693858013516640
407,1.7445431888471014819651087370830
408,1.7450375569805492481581206673960
409,1.7455307170634672185770418028196
410,1.7460226750144820561324242021257
411,1.7465134367091119699442129155116
412,1.7470030079801871036006755409044
413,1.7474913946182663569775183210291
414,1.7479786023720470656234164106782
415,1.7484646369487718218316549564092
416,1.7489495040146288671959236870520
417,1.7494332091951489053038630369812
418,1.7499157580755954979738939537644
419,1.7503971562013533237212840044311
420,1.7508774090783092805526466726774
421,1.7513565221732303854490878248362
422,1.7518345009141377523294405780101
423,1.7523113506906744848164686957939
424,1.7527870768544710977242263150961
425,1.7532616847195048468178012047685
426,1.7537351795624565738858951129595
427,1.7542075666230625519566965584347
428,1.7546788511044613445489437558533
429,1.7551490381735395915558210812380
430,1.7556181329612695840789452630673
431,1.7560861405630461320839718902394
432,1.7565530660390198746122610077574
433,1.7570189144144223706701592029427
434,1.7574836906798940689616415500964
435,1.7579473997918029803716710578949
436,1.7584100466725619544266905562544
437,1.7588716362109427213450810164410
438,1.7593321732623856819863895984663
439,1.7597916626493061272544224710809
440,1.7602501091613979584236724126891
441,1.7607075175559320685012028030103
442,1.7611638925580529485358870527763
443,1.7616192388610731668386666456370
444,1.7620735611267603407624608596385
445,1.7625268639856259319787419358030
446,1.7629791520372068898853626168823
447,1.7634304298503473126070790964973
448,1.7638807019634733440849989991680
449,1.7643299728848691480626268919822
450,1.7647782470929461117179839447296
451,1.7652255290365127823503021705881
452,1.7656718231350383787889319927782
453,1.7661171337789156209246220821433
454,1.7665614653297192666440481677212
455,1.7670048221204639803783638918772
456,1.7674472084558568306136867616506
457,1.7678886286125491124218912239493
458,1.7683290868393838912695534453000
459,1.7687685873576417823970900143005
460,1.7692071343612846084859202022969
461,1.7696447320171947857218027488022
462,1.7700813844654136516933920766095
463,1.7705170958193773392983049636653
464,1.7709518701661483579658184663015
465,1.7713857115666468513486085979687
466,1.7718186240558786626038802553005
467,1.7722506116431594882105229451856
468,1.7726816783123401364050865103774
469,1.7731118280220253673861513376178
470,1.7735410647057938402824554461110
471,1.7739693922724134344642041996992
472,1.7743968146060562432881833909967
473,1.7748233355665085916661183921464
474,1.7752489589893835819504596303538
475,1.7756736886863250914027392223377
476,1.7760975284452157355673447605804
477,1.7765204820303791310809734431007
478,1.7769425531827811344470993466062
479,1.7773637456202289467123203914961
480,1.7777840630375684791919435400376
481,1.7782035091068785316945544403634
482,1.7786220874776653526225050152137
483,1.7790398017770529615479892435812
484,1.7794566556099720546278592730555
485,1.7798726525593489703674696132879
486,1.7802877961862893011579135826911
487,1.7807020900302630000299661928624
488,1.7811155376092855797732231383409
489,1.7815281424200986332019592626547
490,1.7819399079383475383108243858327
491,1.7823508376187584832255653885415
492,1.7827609348953133997853228475693
493,1.7831702031814227814143082846895
494,1.7835786458700974799992526281897
495,1.7839862663341176749510017453847
496,1.7843930679262022595768213700039
497,1.7847990539791743309968384991884
498,1.7852042278061267295957687526523
499,1.7856085927005851260780552830444
500,1.786012151936670787367717362582
501,1.786414908769258768148664992942
502,1.786816866434138983998734696944
503,1.787218028148171635036112275708
504,1.787618397109444824724681485470
505,1.788017976497427222132482969410
506,1.788416769473121498575858605583
507,1.788814779179216387543448440376
508,1.789212008740237008745043251570
509,1.789608461262691688080322485638
510,1.790004139835221327694143418396
511,1.790399047528744558146555182921
512,1.790793187396602573864447472803
513,1.791186562474702268619347160381
514,1.791579175781658348519038533245
515,1.791971030318934797871039168091
516,1.792362129070983909390807085554
517,1.792752475005383954665604195171
518,1.793142071072977281455586433125
519,1.793530920208005621010268292376
520,1.793919025328245463667172535028
521,1.794306389335140299255121622100
522,1.794693015113933999841180211912
523,1.795078905533801783337983421725
