Eigenstate,Potential Energy
1,0.500000000073041172640232171703321562
2,0.64623093812789004778383867157641665
3,0.73633761110546809814050757647132288
4,0.79966528073131372551779968557552081
5,0.8480465803386765523464094217197693
6,0.8870660046893487132335352199668250
7,0.9197208352248536708721810439792705
8,0.9477838583239226172087034352150698
9,0.9723835729938925660605762141826937
10,0.9942802333840245568137285702265545
11,1.0140094096358471375711761287049995
12,1.0319621970543666620689992232939524
13,1.0484327257057019153704599184365183
14,1.0636476932732702908896696386202569
15,1.0777854808719875468496616513000655
16,1.090988957918722281677873159261206
17,1.103374315593806491781614151037815
18,1.115037317847239296619304838035498
19,1.126057824502667561567993062837642
20,1.136503128891324507883465603846858
21,1.146430463933728484074952528377187
22,1.155888913298424290087528810206053
23,1.164920889338508737050968608557998
24,1.173563290492053503833475828718572
25,1.181848418078032074177889648836732
26,1.189804710103907920042020337133527
27,1.197457334228210684995779460981607
28,1.204828671119576305184501615126191
29,1.211938711658699178856571476629423
30,1.218805385780156922631726522725236
31,1.225444836605129750094350887151406
32,1.231871650438136921758857379013021
33,1.238099050891264910006665896451365
34,1.244139063648815655474535903390305
35,1.250002657046108224966966693492728
36,1.255699862602688301893710738218408
37,1.261239878846115391328550410239699
38,1.266631161132078878352200580672858
39,1.271881499668745428602346659172940
40,1.276998087557419436238300737557185
41,1.281987580344847950674831906141682
42,1.286856148327508911831698115647425
43,1.291609522641735178648553476504013
44,1.296253036005432820047252320771378
45,1.300791658839582568476463105302136
46,1.305230031384577053540176449331992
47,1.309572492332969820848235906794334
48,1.313823104422625776953421667298186
49,1.317985677369600157322221457571554
50,1.32206378846595040061620827816009
51,1.32606080112221835007468500816974
52,1.32997988159597498847815857709087
53,1.33382401411536979461668515070170
54,1.33759601457906567772310666074470
55,1.34129854299046495381255804077302
56,1.34493411476405725773889101714874
57,1.34850511102452131965484673746610
58,1.35201378800441534826812805884131
59,1.35546228563353681600650058188919
60,1.35885263540200793350036386472547
61,1.36218676756957887328388999387199
62,1.36546651778533979750045712647967
63,1.36869363317479085537554346009738
64,1.37186977794490683629662911047139
65,1.37499653855229832436568739627744
66,1.37807542847472386123429208071809
67,1.38110789262194533270472538596830
68,1.38409531141816263377099079297235
69,1.38703900458495099604618315322723
70,1.38994023465069609325757051914689
71,1.39280021020992333675970310376872
72,1.39562008895361953063473855406390
73,1.39840098048959204954588796029123
74,1.40114394897009185395625443077174
75,1.40385001554229555622229532580217
76,1.40652016063579219431520151480085
77,1.40915532609991797150552433242407
78,1.41175641720261642216564946889584
79,1.41432430450145464385239935433734
80,1.41685982559648811018717839467713
81,1.41936378677381723757470954349659
82,1.42183696454791742824738460751441
83,1.42428010711013557833256330041795
84,1.42669393569012174792405656354553
85,1.42907914583640541396511143806034
86,1.43143640862180986136076432947247
87,1.43376637177894079693780612788043
88,1.43606966077056189313450934328499
89,1.43834687979928646614089522007435
90,1.44059861276067127648103662616085
91,1.44282542414347698797822688178777
92,1.44502785988057152350453529073027
93,1.44720644815369030086086151094794
94,1.44936170015502440339541757983270
95,1.45149411080838658593958703523002
96,1.45360415945250319452363898598189
97,1.45569231048879573622549719570379
98,1.45775901399584296121066126769918
99,1.45980470631256084683279385844560
100,1.46182981059199153324801369698236
101,1.46383473732746295584193037886680
102,1.46581988485275534504714648721493
103,1.46778563981780285051613553265075
104,1.46973237764135128190466061724971
105,1.47166046294189988476304353430953
106,1.47357024994816430578997132930478
107,1.47546208289021981974753561775790
108,1.47733629637240465078226393107507
109,1.47919321572899462736277058645557
110,1.48103315736359798991955773707804
111,1.48285642907315330907427498685108
112,1.48466333035736403871214694434403
113,1.48645415271434769235767720541338
114,1.48822917992322887355707382587142
115,1.48998868831436494246873135740766
116,1.49173294702784476921485145198085
117,1.49346221826086931154066866324243
118,1.49517675750458172322228574069938
119,1.49687681377088098594792038337599
120,1.49856262980972721516279465789565
121,1.50023444231740852312324212972861
122,1.50189248213622040927361244844765
123,1.50353697444597645512714977708872
124,1.50516813894775142102377890198661
125,1.50678619004022827587487353584966
126,1.50839133698900549370725725621213
127,1.50998378408920037293286543530959
128,1.51156373082166154708062682836077
129,1.51313137200309178248894627188407
130,1.51468689793036377659040773596607
131,1.51623049451929626630204083705934
132,1.51776234343814277883460666930003
133,1.51928262223603357564899533724817
134,1.52079150446660006433123664646313
135,1.52228915980699284481358764233302
136,1.52377575417250086883969650455419
137,1.52525144982696588362849390666986
138,1.52671640548917271870072522397307
139,1.52817077643539386892688947883538
140,1.52961471459825138088709147757108
141,1.53104836866205449214336171792892
142,1.53247188415476339975874665084596
143,1.53388540353672088422758439765910
144,1.53528906628628633534517271743378
145,1.53668300898250253878570679851839
146,1.53806736538491771340708837278656
147,1.53944226651067708633504037031890
148,1.54080784070899933484576284026759
149,1.54216421373313969599298730176027
150,1.54351150880994338484706157424309
151,1.54484984670708523559162277489629
152,1.54617934579808586463765776590166
153,1.54750012212519330543916842309377
154,1.54881228946021401424233900155377
155,1.55011595936337148275099765023215
156,1.55141124124027032406125944177127
157,1.55269824239703687845775320871791
158,1.55397706809370815716270199665255
159,1.5552478215959327968604567727555
160,1.5565106042250503625250621299498
161,1.5577655154066074946598511083661
162,1.5590126527173703620386589468337
163,1.5602521119308882732362508762441
164,1.5614839870616630835319212041685
165,1.5627083704079729973930890518725
166,1.5639253525934012821162135704208
167,1.5651350226071171249344111306530
168,1.5663374678429513224953275546001
169,1.5675327741373118647890222893888
170,1.5687210258059791566329142991160
171,1.5699023056798210711642113839071
172,1.5710766951394657019892196068747
173,1.5722442741489672163109672024087
174,1.5734051212885006525408782767850
175,1.5745593137861196473189226390492
176,1.5757069275486067982872175821538
177,1.5768480371914499231465064315906
178,1.5779827160679733693845693969863
179,1.5791110362976508196149831976401
180,1.5802330687936305389183446200876
181,1.5813488832894957127655670560041
182,1.5824585483652875709021490134753
183,1.5835621314728143464615909584448
184,1.5846596989602703118380986741420
185,1.5857513160961866994368038961174
186,1.5868370470927354759148377360135
187,1.5879169551284097704068607919257
188,1.5889911023700963930437895530148
189,1.5900595499945641748488157664779
190,1.5911223582093837800800675414815
191,1.5921795862732982135660922600828
192,1.5932312925160604052281725325351
193,1.5942775343577561756307803438488
194,1.5953183683276259233339360223045
195,1.5963538500824029663993267000782
196,1.5973840344241822299403781917722
197,1.5984089753178336550302625684076
198,1.5994287259079744909378336001985
199,1.6004433385355133045380382133835
200,1.6014528647537796470874647826285
201,1.6024573553442503547760053933092
202,1.6034568603318858591969289851454
203,1.6044514290000871624493306013477
204,1.6054411099052850917672472070075
205,1.6064259508911717990201615274281
206,1.6074059991025875238153463682616
207,1.6083813009990684908615322222263
208,1.6093519023680701630326226672600
209,1.6103178483378715929943447085974
210,1.6112791833901723690278531099933
211,1.6122359513723895140426668536506
212,1.6131881955096645649378323984840
213,1.6141359584165852102358701419437
214,1.6150792821086364617104478473527
215,1.6160182080133805662709093677857
216,1.6169527769813796125924652603139
217,1.6178830292968647915667015584991
218,1.6188090046881612830545655668855
219,1.6197307423378720419124898672634
220,1.6206482808928329914513267201860
221,1.6215616584738375266530857669912
222,1.6224709126851475245461489689138
223,1.6233760806237844226039826517940
224,1.6242771988886154245027677000360
225,1.6251743035892373898160772449178
226,1.6260674303546619456244792221531
227,1.6269566143418104629237010857731
228,1.6278418902438207080694322079485
229,1.6287232922981723214402754953643
230,1.6296008542946358095946524578633
231,1.6304746095830468402246943106377
232,1.6313445910809162488598821994528
233,1.6322108312808707428587579624930
234,1.6330733622579404487882774927663
235,1.6339322156766864743250976138257
236,1.6347874227981781834824059838352
237,1.6356390144868238053252039681386
238,1.6364870212170561072203423650395
239,1.6373314730798785682382542885906
240,1.6381723997892742061605648992962
241,1.6390098306884813394786822925602
242,1.6398437947561391403706005541606
243,1.6406743206123070094688750640085
244,1.6415014365243594606922931372845
245,1.6423251704127608892923848987830
246,1.6431455498567227417220469384423
247,1.6439626020997444691514118113430
248,1.6447763540550458452271178415687
249,1.6455868323108856166321003213655
250,1.6463940631357768706095889171874
251,1.6471980724835970189216806367735
252,1.6479988859985951962026389613371
253,1.6487965290203021443703592038681
254,1.6495910265883422394148538901882
255,1.6503824034471515400563744033275
256,1.6511706840506019431032673100405
257,1.6519558925665378363192047886510
258,1.6527380528812216929242643564524
259,1.6535171886036954106472492846828
260,1.6542933230700577811030872360261
261,1.6550664793476584026202388959442
262,1.6558366802392127613222247938815
263,1.6566039482868373304207246005026
264,1.6573683057760101379521491291226
265,1.6581297747394553275634650992788
266,1.6588883769609538794604681050698
267,1.6596441339790837041319666777951
268,1.6603970670908891419317719016229
269,1.6611471973554841378015286276208
270,1.6618945455975848146448069758008
271,1.6626391324109807286744749481726
272,1.6633809781619387856671329614823
273,1.6641201029925472606071030365380
274,1.6648565268239971291089323042241
275,1.6655902693598045855699402364521
276,1.6663213500889730257790199477882
277,1.6670497882891019773705032481703
278,1.6677756030294347321470445405837
279,1.6684988131738561828188990684007
280,1.6692194373838329571087392067191
281,1.6699374941213037381303334872873
282,1.6706530016515172673970061388101
283,1.6713659780458212429944183999939
284,1.6720764411843992695435191958993
285,1.6727844087589626673078266107678
286,1.6734898982753931652822456366213
287,1.6741929270563415376528487888509
288,1.6748935122437785855003972078682
289,1.6755916708015031119118769391316
290,1.6762874195176076231295017335886
291,1.6769807750068995967811785493792
292,1.6776717537132812022051771720337
293,1.6783603719120913787510614554629
294,1.6790466457124053090826469435045
295,1.6797305910592933747389864164677
296,1.6804122237360471796290566938578
297,1.6810915593663625733010183976276
298,1.6817686134164889908564807241126
299,1.6824434011973419124869782444677
300,1.6831159378665801933591680502686
301,1.6837862384306486754105719118163
302,1.6844543177467881741140095588631
303,1.6851201905250100134692900969479
304,1.6857838713300386868814237496905
305,1.6864453745832240725871253276195
306,1.6871047145644224669840952681253
307,1.6877619054138436179769813307261
308,1.6884169611338712369301276669571
309,1.6890698955908530786575524008579
310,1.6897207225168609247631075124226
311,1.6903694555114240654061778574010
312,1.6910161080432337927981809191933
313,1.6916606934518202993546456859558
314,1.6923032249492037849578691047073
315,1.6929437156215190931556944933336
316,1.6935821784306152521244466887075
317,1.6942186262156274591914503205547
318,1.6948530716945268603553362436238
319,1.6954855274656452665619535753127
320,1.6961160060091748081953574077158
321,1.6967445196886464469210168635844
322,1.6973710807523834595210779778606
323,1.6979957013349334079705145220371
324,1.6986183934584775731098936979383
325,1.6992391690342196141149061689449
326,1.6998580398637516912111930406325
327,1.7004750176404008726178348317333
328,1.7010901139505530151452059568487
329,1.7017033402749590935409337087838
330,1.7023147079900204104898875896853
331,1.7029242283690541260881297262155
332,1.7035319125835401682637163694775
333,1.7041377717043499029359030293327
334,1.7047418167029547481742767109353
335,1.7053440584526190475369930436064
336,1.7059445077295732608877575933267
337,1.7065431752141703451938663533057
338,1.7071400714920263844148914816793
339,1.7077352070551415332551797922245
340,1.7083285923030073663896931792312
341,1.7089202375436963470168606153419
342,1.7095101529949359121688358629497
343,1.7100983487851668128542881401296
344,1.7106848349545857030332694521499
345,1.7112696214561737970577585852065
346,1.7118527181567090706757191243805
347,1.7124341348377655712676826896739
348,1.7130138811966966493577952179025
349,1.7135919668476056566450583412653
350,1.7141684013223016532279920947758
351,1.7147431940712422119592672716242
352,1.7153163544644630026423664316498
353,1.7158878917924934407965547904605
354,1.7164578152672598158266423597185
355,1.7170261340229762642443646440881
356,1.7175928571170217981054785713962
357,1.7181579935308066280859812293425
358,1.7187215521706270255950914274382
359,1.7192835418685044694662000047108
360,1.7198439713830180155556964698848
361,1.7204028494001216345410300827835
362,1.7209601845339529999441351179094
363,1.7215159853276283224328383263961
364,1.7220702602540282548411024441732
365,1.7226230177165731047308672797588
366,1.7231742660499862326319934799792
367,1.7237240135210485284445318269865
368,1.7242722683293407552198732981974
369,1.7248190386079783933618175535340
370,1.7253643324243346989280963183277
371,1.7259081577807548298594122832230
372,1.7264505226152599971420773629356
373,1.7269914348022416081593697576557
374,1.7275309021531497112608900997436
375,1.7280689324171664336802841340792
376,1.7286055332818758695910673999311
377,1.7291407123739222080970567896548
378,1.7296744772596592691628120202868
379,1.7302068354457932878992129733063
380,1.7307377943800157045890225921524
381,1.7312673614516288365244278138107
382,1.7317955439921615504747077836874
383,1.7323223492759796111075370679615
384,1.7328477845208856697422217915860
385,1.7333718568887125153773123842102
386,1.7338945734859102473520247621739
387,1.7344159413641231196927329058404
388,1.7349359675207599946815948201785
389,1.7354546588995590810761985283877
390,1.7359720223911441468517853464078
391,1.7364880648335725241885419812671
392,1.7370027930128785158700287566664
393,1.7375162136636096774014003555887
394,1.7380283334693545567628245235721
395,1.7385391590632647495277620014938
396,1.7390486970285709210731890015359
397,1.7395569538990924266760610750921
398,1.7400639361597405385344473694265
399,1.7405696502470138464251758661683
400,1.7410741025494901329007125316089
401,1.7415772994083107729091181536891
402,1.7420792471176584040377151420007
403,1.7425799519252306891286124377214
404,1.7430794200327080653810847681049
405,1.7435776575962129464441687516899
406,1.7440746707267664876060268658175
407,1.7445704654907400318992793952215
408,1.7450650479102987414436250186821
409,1.7455584239638402762503623057850
410,1.7460505995864310361437826349376
411,1.7465415806702342270187449856202
412,1.7470313730649333352554269718207
413,1.7475199825781520906053775273738
414,1.7480074149758673426846065871874
415,1.7484936759828191363492621870046
416,1.7489787712829144169337840037201
417,1.7494627065196272152150778473934
418,1.7499454872963924767501105647833
419,1.7504271191769978155370357222703
420,1.7509076076859681753995571088114
421,1.7513869583089473527869576115304
422,1.7518651764930756641335587611202
423,1.7523422676473615955051868538349
424,1.7528182371430510498687932239827
425,1.7532930903139905730037996044963
426,1.7537668324569881665884435369809
427,1.7542394688321691748264273892013
428,1.7547110046633272600762234129293
429,1.7551814451382743816881215289994
430,1.7556507954091826420142192508182
431,1.7561190605929255051512372717082
432,1.7565862457714155398799611161608
433,1.7570523559919340266957358615709
434,1.7575173962674635289106217095793
435,1.7579813715770112535956579164940
436,1.7584442868659311054999615584571
437,1.7589061470462425975087759434163
438,1.7593669569969456019585352824786
439,1.7598267215643316264157307988798
440,1.7602854455622926874949173036965
441,1.7607431337726249449865058191740
442,1.7611997909453306624209569319744
443,1.7616554217989181443036769939941
444,1.7621100310206942719949541795013
445,1.7625636232670589715594134786950
446,1.7630162031637926406698646055959
447,1.7634677753063437065372512004221
448,1.7639183442601095359393283243817
449,1.7643679145607185407972971398328
450,1.7648164907143056347647039033050
451,1.7652640771977885470157635848795
452,1.7657106784591378377574854731546
453,1.7661562989176463617945453705045
454,1.7666009429641945724347326080918
455,1.7670446149615152930328851456792
456,1.7674873192444532566871091030633
457,1.7679290601202241133969341440073
458,1.7683698418686693042833702297105
459,1.7688096687425093205852209306456
460,1.7692485449675949936719901118351
461,1.7696864747431546697971104829125
462,1.7701234622420404867362828381483
463,1.7705595116109723603024855018215
464,1.7709946269707778459567190096713
465,1.7714288124166318486922161425231
466,1.7718620720182933164424435869903
467,1.7722944098203382022084946409347
468,1.7727258298423937153468238599765
469,1.7731563360793663436527959630620
470,1.7735859325016711758413218288334
471,1.7740146230554567967406665925666
472,1.7744424116628300581529450224153
473,1.7748693022220760817825534688833
474,1.7752952986078810038594826988370
475,1.7757204046715463900233816197742
476,1.7761446242412078402206107886179
477,1.7765679611220481227424831984464
478,1.7769904190965095196850649886464
479,1.7774120019245042796828950922820
480,1.7778327133436235791519450066974
481,1.7782525570693435497522434852194
482,1.7786715367952319478899955441133
483,1.7790896561931508534831206473213
484,1.7795069189134582251858182561963
485,1.7799233285852097965893418964939
486,1.7803388888163559060620797795371
487,1.7807536031939401171032428785765
488,1.7811674752842942340219727750510
489,1.7815805086332329496041900056000
490,1.7819927067662459966333808220472
491,1.7824040731886899465331694631154
492,1.7828146113859782525721334798301
493,1.7832243248237695221727341800594
494,1.7836332169481551221651100847914
495,1.7840412911858443195903285187668
496,1.7844485509443502128730570436326
497,1.7848549996121721495986641555538
498,1.7852606405589785871848294125546
499,1.7856654771357879051396944247163
500,1.786069512675149311090805547040
501,1.786472750491319598667749934875
502,1.786875193880443224829016371297
503,1.787276846120727187551304673524
504,1.787677710472618560902967865755
505,1.788077790178977548559161773901
506,1.788477088465251799862053075254
507,1.788875608539649850900312843293
508,1.789273353593313345472631757964
509,1.789670326800486282195729537254
510,1.790066531318687356847138637546
511,1.790461970288878647383665264495
512,1.790856646835634558707281842517
513,1.791250564067309660345307562929
514,1.791643725076206111491758745481
515,1.792036132938741066276612042807
516,1.792427790715612288826797360856
517,1.792818701451963072712587624596
518,1.793208868177548270664084385393
519,1.793598293906898237673252656878
520,1.793986981639483566369611105964
521,1.794374934359877432485005879248
522,1.794762155037919849962376694842
523,1.795148646628880296997362142235
