Eigenstate,Potential Energy
1,0.500000000016743096264842466153619426
2,0.64623093776040478478524024456922359
3,0.73633761002600632673087949915430059
4,0.79966527848290822860743598705940450
5,0.8480465764439563077910710221482644
6,0.8870659986625743109168969914594015
7,0.9197208265763503045469207665604730
8,0.9477838465619274417451886977529959
9,0.9723835576254124490282289228816844
10,0.9942802139152702536677041673664767
11,1.0140093855724680647643715802292584
12,1.0319621679015840562560011939005515
13,1.0484326909683866719749132909357494
14,1.0636476524559889638938343861075380
15,1.0777854334790291391572075329341072
16,1.090988903454112967327672473337903
17,1.103374253561316486209698982952124
18,1.115037247750384459391838315775236
19,1.126057745844707368696372649363768
20,1.136503041175257461239494651839997
21,1.146430366662285672126260753748865
22,1.155888805974061588875725730816273
23,1.164920771463397993047245654282426
24,1.173563161568072941836720335043396
25,1.181848277606756106239744690032134
26,1.189804557586596484717009224299884
27,1.197457169165798213219942761861485
28,1.204828493012660385405512633716940
29,1.211938520007528976800117933834553
30,1.218805180084621398375450519965672
31,1.225444616364745705630145000191459
32,1.231871415152036905059980480242086
33,1.238098800058184996151096177771870
34,1.244138796767083121166524646435138
35,1.250002373613629129526790261595872
36,1.255699562116934985220738978963944
37,1.261239560804113897315834684994299
38,1.266630825030396310617143508888525
39,1.271881145003477244104103901877982
40,1.276997713824176681308030828211068
41,1.281987187038744443136497762017308
42,1.286855734943148372197628995908758
43,1.291609088673198312803928522712684
44,1.296252580946264355366629162932180
45,1.300791182182778244924021509200100
46,1.305229532622570570978448008135433
47,1.309571970957619743505905585496771
48,1.313822559925202395771484600707667
49,1.317985109240772310702007511856079
50,1.32206319619577225392627379960342
51,1.32606018420011613413115733470968
52,1.32997923951073369709111912950277
53,1.33382334635511984119003226197925
54,1.33759532063126951080428653227915
55,1.34129782234190363140957697227927
56,1.34493336690081698015310249903661
57,1.34850433543197992051773205412833
58,1.35201298416722874341701425193852
59,1.35546145303562540978760944034609
60,1.35885177352654298204585579414219
61,1.36218587589896880427271116044001
62,1.36546559580121648587963930849483
63,1.36869268035799585448900982408268
64,1.37186879377547756384186034327763
65,1.37499552250945420257417736074149
66,1.37807438003685241064982583225526
67,1.38110681126658821891329835941214
68,1.38409419662200166641767996155532
69,1.38703785582379407945705496813644
70,1.38993905139946312796922529285614
71,1.39279899194263207124383445353476
72,1.39561883514337136249173543802088
73,1.39839969060855777542820216456676
74,1.40114262248949736747020840120080
75,1.40384865193240749304521702352302
76,1.40651875936590352375393012316196
77,1.40915388663833353371153813346619
78,1.41175493901663841021197694952739
79,1.41432278705736802986758702171802
80,1.41685826835954601473229662464400
81,1.41936218920822624143987549115385
82,1.42183532611682282583543711278502
83,1.42427842727560657178874810703920
84,1.42669221391313658116184109383738
85,1.42907738157683644572979888346005
86,1.43143460133840857646430447860032
87,1.43376452092932275478970929846757
88,1.43606776581119161268570584593637
89,1.43834494018546224634923870404560
90,1.44059662794650995139900089090612
91,1.44282339358189861555521186508451
92,1.44502578302328400718824986277939
93,1.44720432445117394307410572068580
94,1.44935952905651638995651636813758
95,1.45149189176186540048664639371434
96,1.45360189190467296199477473821088
97,1.45568999388507049443881662339431
98,1.45775664778033085957985094175588
99,1.45980228992804827124565454855662
100,1.46182734347992715612723184452884
101,1.46383221892794171039879994823857
102,1.46581731460450232273065251124101
103,1.46778301715815712065143635771381
104,1.46972970200624963250595452789900
105,1.47165773376586048349771709851931
106,1.47356746666427028006177006656839
107,1.47545924493010275485788633618499
108,1.47733340316622800511984436326475
109,1.47919026670543706356234269681835
110,1.48103015194983662092205545657495
111,1.48285336669484685801079596741369
112,1.48466021043863591152529317079029
113,1.48645097467776896206400184887603
114,1.48822594318980117504504304938701
115,1.48998539230350327671677530757073
116,1.49172959115736021580429969943426
117,1.49345880194695164832842607858095
118,1.49517328016178195202805468258440
119,1.49687327481209376310064600187139
120,1.49855902864617318574044053533592
121,1.50023077835861655770990218953214
122,1.50188875479000974204703628805593
123,1.50353318311843872207925115031724
124,1.50516428304323259710577569421797
125,1.50678226896131050984752849512404
126,1.50838735013648883946577537026696
127,1.50997973086208441606452237515446
128,1.51155961061712692540169476729311
129,1.51312718421648159929604896620429
130,1.51468264195516490534949299366225
131,1.51622616974712054548643184122223
132,1.51775794925870809561091016264653
133,1.51927815803714483709845310046616
134,1.52078696963413005488054484949180
135,1.52228455372486296853727254797698
136,1.52377107622266177528328995459274
137,1.52524669938937797578861436987929
138,1.52671158194178654178524666133487
139,1.52816587915413037850492825111101
140,1.52960974295698208902510657385906
141,1.53104332203258149011023989040699
142,1.53246676190679925586843203018041
143,1.53388020503786841537418442019988
144,1.53528379090201825077096122288478
145,1.53667765607614095460828795960960
146,1.53806193431761353641707455719555
147,1.53943675664138926556089514935314
148,1.54080225139447397936764327042913
149,1.54215854432788905747163219220749
150,1.54350575866622470321908460413893
151,1.54484401517487944636613029487096
152,1.54617343222507616621380770439192
153,1.54749412585674358484788533726943
154,1.54880620983934712969935559063056
155,1.55010979573074740139158983159263
156,1.55140499293416411321018321466310
157,1.55269190875331654877142383914003
158,1.55397064844581235596282928846935
159,1.5552413152748483499612469040131
160,1.5565040105592896628382415045328
161,1.5577588337221857358437668106535
162,1.5590058823377826154395488876632
163,1.5602452521770864063515108117733
164,1.5614770372520325182062044761113
165,1.5627013298583093059389358134215
166,1.5639182206168866195323162404663
167,1.5651277985142964953746571089809
168,1.5663301509417086781217122107170
169,1.5675253637328460351223462651795
170,1.5687135212007796064937830128840
171,1.5698947061736434852771595783983
172,1.5710690000293073943012686855251
173,1.5722364827290423620551474635367
174,1.5733972328502153410533920336723
175,1.5745513276180467535971379190480
176,1.5756988429364606712533189984985
177,1.5768398534180608885595782762142
178,1.5779744324132620453208136146002
179,1.5791026520386022424129431339547
180,1.5802245832042680974626096113847
181,1.5813402956408548889586826836054
182,1.5824498579253894841506106499023
183,1.5835533375066390999772440483966
184,1.5846508007297301385317352692967
185,1.5857423128600989051553225232143
186,1.5868279381067951777488412427643
187,1.5879077396451624277685864541699
188,1.5889817796389101291902214612577
189,1.5900501192616018864974223952661
190,1.5911128187175750327389325039029
191,1.5921699372623109201713852463353
192,1.5932215332222722856557699778702
193,1.5942676640142259946197314055679
194,1.5953083861640645043320412855767
195,1.5963437553251439788109792317423
196,1.5973738262961527472291001539449
197,1.5983986530385244810973586901842
198,1.5994182886934102521695071364048
199,1.6004327855982223048819535118734
200,1.6014421953027634834898204753010
201,1.6024465685849532902777175613320
202,1.6034459554661639509562770829241
203,1.6044404052261771419261993150325
204,1.6054299664177729942710186308823
205,1.6064146868809613397903341156664
206,1.6073946137568682177701456000614
207,1.6083697935012835131154393511818
208,1.6093402718978839472493965445149
209,1.6103060940711371646064863725189
210,1.6112673044988984103181645072684
211,1.6122239470247071580472938511506
212,1.6131760648697939150930465033133
213,1.6141237006448015826538993701799
214,1.6150668963612363469319386041177
215,1.6160056934426473073028415714453
216,1.6169401327355487960016470356890
217,1.6178702545200893483594674196341
218,1.6187960985204762960336171504554
219,1.6197177039151592561597283905330
220,1.6206351093467850245460631338644
221,1.6215483529319217751921908142919
222,1.6224574722705697634897792643744
223,1.6233625044554520939287774027899
224,1.6242634860811006115992255319678
225,1.6251604532527394740231231147984
226,1.6260534415949699412490104597646
227,1.6269424862602650270474754197226
228,1.6278276219372758213985874131873
229,1.6287088828589566364061777499538
230,1.6295863028105136618669834922410
231,1.6304599151371789197486391757683
232,1.6313297527518199264807731328610
233,1.6321958481423800485468732839608
234,1.6330582333791656974260401197961
235,1.6339169401219735349675832426839
236,1.6347719996270673879495742222218
237,1.6356234427540084919308633689145
238,1.6364712999723407953898248424850
239,1.6373156013681367597115791907054
240,1.6381563766504058084219656083040
241,1.6389936551573697069975482570488
242,1.6398274658626077291823398001610
243,1.6406578373810756405640614536078
244,1.6414847979750001876257355800196
245,1.6423083755596534653625935828238
246,1.6431285977090096820107627892106
247,1.6439454916612857026519695100425
248,1.6447590843243729522269325819893
249,1.6455694022811556464512806982310
250,1.6463764717947257347328652820304
251,1.6471803188134924544955915990333
252,1.6479809689761892948027687050613
253,1.6487784476167834408761731343044
254,1.6495727797692873557608783773647
255,1.6503639901724763785583203599553
256,1.6511521032745124239872374892282
257,1.6519371432374801740098522218784
258,1.6527191339418322055749209334723
259,1.6534980989907498573209727843043
260,1.6542740617144202209370338734536
261,1.6550470451742295702307624101307
262,1.6558170721668779526288519589756
263,1.6565841652284137929892084082464
264,1.6573483466381939598755989104947
265,1.6581096384227678188197165621202
266,1.6588680623596874396005946697480
267,1.6596236399812471700706760254712
268,1.6603763925781526095249298809452
269,1.6611263412031232508094398854452
270,1.6618735066744245145908493557822
271,1.6626179095793384590202262020165
272,1.6633595702775671436324158242773
273,1.6640985089045760898721019512822
274,1.6648347453748750465409172888816
275,1.6655682993852399350215099956896
276,1.6662991904178742519074327081184
277,1.6670274377435174123292244011046
278,1.6677530604244917879004153938336
279,1.6684760773176999417283759514875
280,1.6691965070775641533357161094797
281,1.6699143681589161222955256064402
282,1.6706296788198343468287249074112
283,1.6713424571244323897898130349320
284,1.6720527209455951885563161152955
285,1.6727604879676702160622681087936
286,1.6734657756891095177011054051454
287,1.6741686014250676833689022499176
288,1.6748689823099521564038574403009
289,1.6755669352999305274661130256786
290,1.6762624771753955458649235862146
291,1.6769556245433856892534308427430
292,1.6776463938399641765772452649139
293,1.6783348013325603300312647520898
294,1.6790208631222683229189277783239
295,1.6797045951461054005386972147631
296,1.6803860131792371596373023712906
297,1.6810651328371598181341702366226
298,1.6817419695778487918481014485064
299,1.6824165387038703810610199934059
300,1.6830888553644583175014271417009
301,1.6837589345575555831624948798442
302,1.6844267911318235938643641806434
303,1.6850924397886159206662505341568
304,1.6857558950839201266347911766765
305,1.6864171714302691474716757719766
306,1.6870762830986214791971859507440
307,1.6877332442202073548397699642237
308,1.6883880687883483885568567320012
309,1.6890407706602467764490297343489
310,1.6896913635587443892106224144989
311,1.6903398610740553515163041698590
312,1.6909862766654696212725801992406
313,1.6916306236630289614798268838266
314,1.6922729152691771089751769133912
315,1.6929131645603834596956207896098
316,1.6935513844887416461003011517040
317,1.6941875878835405453534240416985
318,1.6948217874528130695094596917043
319,1.6954539957848598792592162185241
320,1.6960842253497480224917436871684
321,1.6967124885007884166029373757809
322,1.6973387974759882889784159079078
323,1.6979631643994820896864982377240
324,1.6985856012829398535173822608264
325,1.6992061200269547733461840560322
326,1.6998247324224082220428723268936
327,1.7004414501518150436810609661101
328,1.7010562847906463032370555306025
329,1.7016692478086344696337826852693
330,1.7022803505710574637924988619508
331,1.7028896043400030102645647987608
332,1.7034970202756143536639676435965
333,1.7041026094373177184342795403045
334,1.7047063827850296959522086977179
335,1.7053083511803488738783977045634
336,1.7059085253877277657857160725718
337,1.7065069160756279132892281963475
338,1.7071035338176592195080417538259
339,1.7076983890936995783443904471865
340,1.7082914922910008908983277745845
341,1.7088828537052771825738057606684
342,1.7094724835417773180037203695057
343,1.7100603919163419515611917116826
344,1.7106465888564447071422516158796
345,1.7112310843022194065319837688106
346,1.7118138881074708211273321421526
347,1.7123950100406725123529696740066
348,1.7129744597859485724721968299828
349,1.7135522469440428106956626831275
350,1.7141283810332729269063165578274
351,1.7147028714904717605825667469901
352,1.7152757276719152972631146643574
353,1.7158469588542367169097848322075
354,1.7164165742353278986235752094681
355,1.7169845829352287469762094683006
356,1.7175509939970025497247488965349
357,1.7181158163876006059331182158163
358,1.7186790589987153684867525516608
359,1.7192407306476178461248770961213
360,1.7198008400779882028955183420190
361,1.7203593959607312998880843253844
362,1.7209164068947836608300016105417
363,1.7214718814079064571471894854671
364,1.7220258279574695364690156792425
365,1.7225782549312247309320524632372
366,1.7231291706480673229398921714201
367,1.7236785833587885603767580887668
368,1.7242265012468160099922479616856
369,1.7247729324289463814908537291269
370,1.7253178849560665354897516915727
371,1.7258613668138655286433525658349
372,1.7264033859235366524022947029483
373,1.7269439501424694321118827688076
374,1.7274830672649358949187778191373
375,1.7280207450227617980450127813452
376,1.7285569910859942736343318497538
377,1.7290918130635576793711802650217
378,1.7296252185039008222731229836328
379,1.7301572148956373954479304518017
380,1.7306878096681763845696958447906
381,1.7312170101923453194992688431130
382,1.7317448237810034892080779284091
383,1.7322712576896497946565687892700
384,1.7327963191170202033169520091821
385,1.7333200152056784265840753325289
386,1.7338423530426004787155690037298
387,1.7343633396597488666255267881582
388,1.7348829820346403473175283321991
389,1.7354012870909079276292101461107
390,1.7359182616988542953803646195765
391,1.7364339126759969988505273310649
392,1.7369482467876089829474460927048
393,1.7374612707472519555375628273844
394,1.7379729912173011650186827488242
395,1.7384834148094644459912501908350
396,1.7389925480852951838786850810312
397,1.7395003975566988283875238751035
398,1.7400069696864329639244864097172
399,1.7405122708885995027439082462480
400,1.7410163075291333007652190980717
401,1.7415190859262832449622301056607
402,1.7420206123510865575225137496156
403,1.7425208930278391374982798090954
404,1.7430199341345598330201480934133
405,1.7435177418034461095003665124662
406,1.7440143221213272228414883520574
407,1.7445096811301120143515698748659
408,1.7450038248272288305415284760701
409,1.7454967591660604288621580493835
410,1.7459884900563763838405844177846
411,1.7464790233647572536147159633718
412,1.7469683649150140894361437357916
413,1.7474565204886043671816415624361
414,1.7479434958250407646993962366662
415,1.7484292966222970689335303318644
416,1.7489139285372076424402127766705
417,1.7493973971858632977630540690422
418,1.7498797081440007428844916232463
419,1.7503608669473898762454776594919
420,1.7508408790922139132358147923192
421,1.7513197500354462963192913622653
422,1.7517974851952236703766001163378
423,1.7522740899512127593859782033713
424,1.7527495696449747581466365067914
425,1.7532239295803236183846076749286
426,1.7536971750236818360604534956369
427,1.7541693112044312244881995876267
428,1.7546403433152586869317618436623
429,1.7551102765125009010451125196315
430,1.7555791159164807772402263276568
431,1.7560468666118431946146049655880
432,1.7565135336478871639300401715680
433,1.7569791220388897555166103134782
434,1.7574436367644328900157804944915
435,1.7579070827697208156126245966617
436,1.7583694649658961727235374033849
437,1.7588307882303528074840993660698
438,1.7592910574070443160759608928351
439,1.7597502773067890011719217709719
440,1.7602084527075723116861337502655
441,1.7606655883548439256556850892920
442,1.7611216889618130398731697807361
443,1.7615767592097415139378803379753
444,1.7620308037482294880684615384007
445,1.7624838271955028053078044511522
446,1.7629358341386932624397846470611
447,1.7633868291341188587575668725333
448,1.7638368167075572608546071894763
449,1.7642858013545203239128327737082
450,1.7647337875405218218981292003557
451,1.7651807797013458897260435198692
452,1.7656267822433090187142499454785
453,1.7660717995435213483609622982108
454,1.7665158359501436433658960253265
455,1.7669588957826435797322799160847
456,1.7674009833320466369157721707819
457,1.7678421028611862916928350746211
458,1.7682822586049499096106358581716
459,1.7687214547705228479081095153343
460,1.7691596955376304122157863208107
461,1.7695969850587755167231624135124
462,1.7700333274594752608276833991766
463,1.7704687268384950259995505422463
464,1.7709031872680782537309132375208
465,1.7713367127941758732675220981530
466,1.7717693074366725097815086468502
467,1.7722009751896087534628874545071
468,1.7726317200214045051320617539486
469,1.7730615458750758750305690044174
470,1.7734904566684531592909098863976
471,1.7739184562943941611523170929602
472,1.7743455486209971544932261168680
473,1.7747717374918088405417522035571
474,1.7751970267260348017162718047626
475,1.7756214201187413753083338476348
476,1.7760449214410614607707787882691
477,1.7764675344403945935637625095221
478,1.7768892628406059615031385937503
479,1.7773101103422232529502950073725
480,1.7777300806226317313786179491570
481,1.7781491773362660871454106731859
482,1.7785674041148026352086029763665
483,1.7789847645673472387375631715372
484,1.7794012622806217783232133831395
485,1.7798169008191506436143719460633
486,1.7802316837254418321220393818297
487,1.7806456145201695039223304843143
488,1.7810586967023525886916273420563
489,1.7814709337495326731199160863619
490,1.7818823291179490316917985903680
491,1.7822928862427129349798558423457
492,1.7827026085379798234967099259473
493,1.7831114993971193219717536414311
494,1.7835195621928841879474365417934
495,1.7839268002775763870429261712003
496,1.7843332169832135391565266023877
497,1.7847388156216914209748545462090
498,1.7851435994849464698871020084310
499,1.7855475718451157864675234414026
500,1.785950735954696765838176392285
501,1.786353095046702103759103107994
502,1.786754652334817632432850279952
503,1.787155411013554453950868065828
504,1.787555374258403215017881080032
505,1.787954545225983370213254474539
506,1.788352927054193163667064649147
507,1.788750522862358176964290316926
508,1.789147335751378083017970395088
509,1.789543368803869836579958458679
510,1.789938625084313354400615296992
511,1.790333107639192915885160572963
512,1.790726819497138184212530300986
513,1.791119763669063463422622351227
514,1.791511943148305867702544000470
515,1.791903360910762776938699461921
516,1.792294019915026788691086371669
517,1.792683923102519241148997172779
518,1.793073073397624092273677194075
519,1.793461473707818936892544429643
520,1.793849126923806018568444754651
521,1.794236035919640031293223940906
522,1.794622203552856987027337899974
523,1.795007632664600586063557104695
