Eigenstate,Potential Energy
1,0.500000000058619016052749394469138218
2,0.64623093803374932312497451367050089
3,0.73633761082893548048278652242651029
4,0.79966528015532262160852647744459681
5,0.8480465793409305321610559171491756
6,0.8870660031454036860305088408330808
7,0.9197208330092525093617252766038039
8,0.9477838553106674058549405857751552
9,0.9723835690566633361439656640637916
10,0.9942802283962895107759249016450761
11,1.0140094034709217904647388707301788
12,1.0319621895854469509442741731693573
13,1.0484327168058831357121594244215116
14,1.0636476828155578754908996902762327
15,1.0777854687293029223620684208048895
16,1.090988943963905632163798558775311
17,1.103374299699617509257602022112460
18,1.115037299886356580557566123416996
19,1.126057804347687086642645767254908
20,1.136503106414757433331129385744910
21,1.146430439007998487531878616364640
22,1.155888885795864551048712945209370
23,1.164920859131358657364330589852275
24,1.173563257452455227415935673652677
25,1.181848382078026850929467573377553
26,1.189804671015432346973589317073148
27,1.197457291923092849133093949482624
28,1.204828625469531846744221753309008
29,1.211938662535327288773475897235899
30,1.218805333054936285258899019361661
31,1.225444780149414439466385623172670
32,1.231871590123152257972287496071867
33,1.238098986588103280871303614182612
34,1.244138995228432307510528163480604
35,1.250002584379317026983657478645252
36,1.255699785560157483728808660821026
37,1.261239797298363259806311846220224
38,1.266631074949469512105416962172655
39,1.271881408721484353070888229801181
40,1.276997991715549279888812267757923
41,1.281987479478244083268242283372309
42,1.286856042305875065386951202949790
43,1.291609411334599051604313551249769
44,1.296252919282141665002040005384670
45,1.300791536569298763786747880249094
46,1.305229903436273658971550445940065
47,1.309572358575426117403868539085799
48,1.313822964724422790944051736869900
49,1.317985531599116168691074474473387
50,1.32206363649135643548885632217306
51,1.32606064281147365746661308759878
52,1.32997971681682250106080938278469
53,1.33382384273533157341503767589987
54,1.33759583646543834059368921890120
55,1.34129835801031508752979555918399
56,1.34493392278421681349917502011664
57,1.34850491191158299179141685536215
58,1.35201358162472793595532965866609
59,1.35546207185320056771921173192105
60,1.35885241408686987398272546274542
61,1.36218653858522811277115746733686
62,1.36546628099710282292831264539878
63,1.36869338844772680330268606466814
64,1.37186952514380274725861280196604
65,1.37499627754166437837072848680666
66,1.37807515911878859410512194256814
67,1.38110761478465083296435250826841
68,1.38409502496315971976440274524440
69,1.38703870937559437298454962915970
70,1.38993993055003948986639043704633
71,1.39279989708071462120736212633714
72,1.39561976665829580541330985665271
73,1.39840064889027472497147382450688
74,1.40114360792858169995186076110894
75,1.40384966492006773204199226351031
76,1.40651980029399125586430466362026
77,1.40915495589935285590752202707686
78,1.41175603700375540922267822667122
79,1.41432391416442029404227952527817
80,1.41685942498105217883628437040977
81,1.41936337573939556484214050097792
82,1.42183654295356480455227589771731
83,1.42427967481454058485271398906955
84,1.42669349255160157179036678038189
85,1.42907869171290063777271236641720
86,1.43143594337087922661413002397370
87,1.43376589525775594104342259982400
88,1.43606917283590205955109126213369
89,1.43834638030753318729352018927547
90,1.44059810156780302904182598533767
91,1.44282490110506382011256664091686
92,1.44502732485176965367811919219861
93,1.44720590098923668779907835212185
94,1.44936114070923128678284630784374
95,1.45149353893513599744359092083195
96,1.45360357500524143872216582772922
97,1.45569171332052784101538166924344
98,1.45775840395912709726873237177972
99,1.45980408325950271569819326641612
100,1.46182917437423872359012270776039
101,1.46383408779619926747419458172362
102,1.46581922185869508024310135743027
103,1.46778496321118507217970913383104
104,1.46973168727193403814259956242876
105,1.47165975865895439940315721591701
106,1.47356953160046913438450120405897
107,1.47546135032605497059658426947229
108,1.47733554943954567050793681715142
109,1.47919245427470665055996265520148
110,1.48103238123462975240497259668109
111,1.48285563811573112425053944907081
112,1.48466252441718573655936519228522
113,1.48645333163657652055980452018802
114,1.48822834355248736026590102078247
115,1.48998783649472872020330561608674
116,1.49173207960283635938920709857247
117,1.49346133507345186910782749464552
118,1.49517585839715274091725300311858
119,1.49687589858526595760743016688051
120,1.49856169838717325759421449414440
121,1.50023349449857795598980971584344
122,1.50189151776118429245775319375824
123,1.50353599335420808302818351314920
124,1.50516714097811977324086893666640
125,1.50678517503099142372029372071740
126,1.50839030477780396198957295044429
127,1.50998273451305045644366707296146
128,1.51156266371694858121268495383975
129,1.51313028720556336740776840868570
130,1.51468579527512295437496620254146
131,1.51622937384079465046455293208436
132,1.51776120457017363562278564231364
133,1.51928146501172485652819084508767
134,1.52079032871840738903724885004101
135,1.52228796536669243436054691240403
136,1.52377454087118242786088323427254
137,1.52525021749502543142115470993471
138,1.52671515395630536833939640816831
139,1.52816950553058655380260691610928
140,1.52961342414977552802305000998295
141,1.53104705849745864163061410973670
142,1.53247055410086576964810287179793
143,1.53388405341960188020676798372918
144,1.53528769593128100452291179353022
145,1.53668161821419296689691068094137
146,1.53806595402712536474554818473896
147,1.53944083438645508571257980147744
148,1.54080638764062469086885932717823
149,1.54216273954210546493982600970170
150,1.54351001331695077442009184010447
151,1.54484832973203564781245740458250
152,1.54617780716007287714276703802177
153,1.54749856164249459042656889303206
154,1.54881070695028319431083476072129
155,1.55011435464282992286486275229123
156,1.55140961412489885886446453445042
157,1.55269659270176747415294800435879
158,1.55397539563261550716106988691518
159,1.5552461261822258503993962727674
160,1.5565088856710637854413784431304
161,1.5577637735237930614965573016388
162,1.5590108873162882786539430779319
163,1.5602503228211984290734619903331
164,1.5614821740521162326995930272706
165,1.5627065333064018676936858521820
166,1.5639234912067116111525526275503
167,1.5651331367412786224120996147582
168,1.5663355573029885578290636064076
169,1.5675308387272950791101088107850
170,1.5687190653290149982843953442696
171,1.5699003199380432537592391147517
172,1.5710746839340255840969899328652
173,1.5722422372800243018234061513399
174,1.5734030585552130107616662243773
175,1.5745572249866342518050107395761
176,1.5757048124800497834609367044052
177,1.5768458956499167576847579300568
178,1.5779805478485189453790032335396
179,1.5791088411942794564851008894920
180,1.5802308465992859010467999954679
181,1.5813466337960506398121320971086
182,1.5824562713635338197402113213977
183,1.5835598267524522436676073190300
184,1.5846573663098983156514234904548
185,1.5857489553032908700935999819409
186,1.5868346579436788532463937526499
187,1.5879145374084216575783649044416
188,1.5889886558632615452958858411712
189,1.5900570744838118920894957877453
190,1.5911198534764769021607693878288
191,1.5921770520988220170597941128046
192,1.5932287286794114005136488372086
193,1.5942749406371308030709916684031
194,1.5953157445000091473220507840190
195,1.5963511959235567660287812910554
196,1.5973813497086339850411945710464
197,1.5984062598188644262963523773364
198,1.5994259793976071928542580969156
199,1.6004405607845007698003156762100
200,1.6014500555315925811884914606246
201,1.6024545144190651794183052143913
202,1.6034539874705724431711178404390
203,1.6044485239681964386019501503841
204,1.6054381724670365586628162908375
205,1.6064229808094409058842813781919
206,1.6074029961388929373272616068320
207,1.6083782649135592423455982797141
208,1.6093488329195126745789726197601
209,1.6103147452836365810199646854090
210,1.6112760464862216237691207779628
211,1.6122327803732625534509161652481
212,1.6131849901684651614288163409802
213,1.6141327184849677887235011293194
214,1.6150760073367923673344059708502
215,1.6160148981500242002060138791173
216,1.6169494317737344343067034536963
217,1.6178796484906491858721925368821
218,1.6188055880275742902742385831795
219,1.6197272895655789494617118879823
220,1.6206447917499507851112230452767
221,1.6215581326999201997895369609912
222,1.6224673500181712435030550971669
223,1.6233724808001325464773228363723
224,1.6242735616430633774757174445120
225,1.6251706286549373842119654735677
226,1.6260637174631275538079642143902
227,1.6269528632229010361558618559516
228,1.6278381006257256403957771326460
229,1.6287194639073951566641849958113
230,1.6295969868559781893623822997257
231,1.6304707028195922912199768012956
232,1.6313406447140138070792241620552
233,1.6322068450301184129094490890410
234,1.6330693358411684961230813084680
235,1.6339281488099405482981242232700
236,1.6347833151957022690814009689044
237,1.6356348658610430014046076862481
238,1.6364828312785592290301090737348
239,1.6373272415374005720112291525975
240,1.6381681263496784334902008799062
241,1.6390055150567415791865948995700
242,1.6398394366353215055312692237090
243,1.6406699197035516272248922824081
244,1.6414969925268619724604316799002
245,1.6423206830237537589263449747130
246,1.6431410187714563691631657260066
247,1.6439580270114681070626118314361
248,1.6447717346549883160704981148678
249,1.6455821682882358276125325446830
250,1.6463893541776641238710534805783
251,1.6471933182750711143443246298591
252,1.6479940862226063241105700562495
253,1.6487916833576805654207011522453
254,1.6495861347177777488998259786942
255,1.6503774650451727138085809141321
256,1.6511656987915551621544560447858
257,1.6519508601225660874202117447311
258,1.6527329729222431419921811482016
259,1.6535120607973817461624776716574
260,1.6542881470818123244344653492968
261,1.6550612548405939822130386308707
262,1.6558314068741293476375154200411
263,1.6565986257221994284689596002472
264,1.6573629336679239342166096105378
265,1.6581243527416455880622375240858
266,1.6588829047247405956462475659232
267,1.6596386111533584832801683360934
268,1.6603914933220913386172155386325
269,1.6611415722875767230131647447069
270,1.6618888688720299790352728307956
271,1.6626334036667152163897569973677
272,1.6633751970353489551467221632233
273,1.6641142691174438686909641514561
274,1.6648506398315898347323980766598
275,1.6655843288786761692701884174573
276,1.6663153557450533211804804449681
277,1.6670437397056415107569941750118
278,1.6677694998269780661694596945076
279,1.6684926549702149603270171967901
280,1.6692132237940586410329611876980
281,1.6699312247576600432781639933136
282,1.6706466761234522799636936932332
283,1.6713595959599392235234157538981
284,1.6720700021444321350060337511616
285,1.6727779123657411479028144321892
286,1.6734833441268176314913499462560
287,1.6741863147473524930135043087368
288,1.6748868413663268204907539663920
289,1.6755849409445195142682784687790
290,1.6762806302669726398444742861669
291,1.6769739259454123429547027688547
292,1.6776648444206282118461619348558
293,1.6783534019648149925486914443254
294,1.6790396146838716940885315360452
295,1.6797234985196601708202888832084
296,1.6804050692522307674717681718847
297,1.6810843425020049586591786012288
298,1.6817613337319242996587008079027
299,1.6824360582495624913248805467817
300,1.6831085312092023097953357404530
301,1.6837787676138778124538704983271
302,1.6844467823173839131194629284222
303,1.6851125900262504996265398765698
304,1.6857762053016846713622601383853
305,1.6864376425614825253256768258732
306,1.6870969160819097539661968295036
307,1.6877540399995482368156095523449
308,1.6884090283131161044011045620307
309,1.6890618948852573637678494404913
310,1.6897126534443014208188525249302
311,1.6903613175859960944381794037391
312,1.6910079007752116355963284215361
313,1.6916524163476171442494591277293
314,1.6922948775113311883747592976987
315,1.6929352973485459448518265623798
316,1.6935736888171262379006697369185
317,1.6942100647521810137519996132451
318,1.6948444378676126028648920417553
319,1.6954768207576409113269450154070
320,1.6961072258983025427679839260034
321,1.6967356656489287697964642432466
322,1.6973621522535984694656105230478
323,1.6979866978425695368848828011161
324,1.6986093144336877541957564461549
325,1.6992300139337748769713487062179
326,1.6998488081399941753481331112588
327,1.7004657087411962507271504913185
328,1.7010807273192423173229637158674
329,1.7016938753503099235042321366117
330,1.7023051642061775446778499265394
331,1.7029146051554894863807129783800
332,1.7035222093650021588926469984081
333,1.7041279879008121019986025666243
334,1.7047319517295639439977195251966
335,1.7053341117196426099676466341050
336,1.7059344786423458374132996805817
337,1.7065330631730398716251721219116
338,1.7071298758922993996787953773087
339,1.7077249272870277876653565519291
340,1.7083182277515637125771480566531
341,1.7089097875887699025109968741145
342,1.7094996170111064824268220861544
343,1.7100877261416885633385043414398
344,1.7106741250153280687356806612272
345,1.7112588235795616176633277924442
346,1.7118418316956619393482248942793
347,1.7124231591396363848272475789221
348,1.7130028156032093474003790706696
349,1.7135808106947921369327092268938
350,1.7141571539404378504496055348060
351,1.7147318547847833267321462460470
352,1.7153049225919778673858501220679
353,1.7158763666465980088697066824584
354,1.7164461961545497600736477641617
355,1.7170144202439586708417204934983
356,1.7175810479660459413467049865398
357,1.7181460882959938114797944593488
358,1.7187095501337994743831016464524
359,1.7192714423051132593951694963918
360,1.7198317735620700224614821220423
361,1.7203905525841054890136169394646
362,1.7209477879787640310575814675987
363,1.7215034882824924742241525647980
364,1.7220576619614249589200067788811
365,1.7226103174121570920953246221247
366,1.7231614629625082674465550169718
367,1.7237111068722750462179598693816
368,1.7242592573339723874900328702186
369,1.7248059224735673606577143886555
370,1.7253511103512010534375949914080
371,1.7258948289619015288803932812617
372,1.7264370862362867880372656594090
373,1.7269778900412577051683467988913
374,1.7275172481806852441504411858318
375,1.7280551683960826478322614335277
376,1.7285916583672740567373678461326
377,1.7291267257130513465123812315673
378,1.7296603779918223517210680510329
379,1.7301926227022523159807058254307
380,1.7307234672838953254033909988726
381,1.7312529191178186009779400008344
382,1.7317809855272167682704214911843
383,1.7323076737780207793090332209101
384,1.7328329910794964505703911913505
385,1.7333569445848362385376987938520
386,1.7338795413917449117021563491709
387,1.7344007885430148685686561359457
388,1.7349206930270950386914966029965
389,1.7354392617786540416563107668452
390,1.7359565016791347933501419317914
391,1.7364724195573008766973387856476
392,1.7369870221897782854817516901142
393,1.7375003163015900149903147216237
394,1.7380123085666820808228703286098
395,1.7385230056084438229995262652496
396,1.7390324140002221464940212035714
397,1.7395405402658293283636262916364
398,1.7400473908800443998850818913361
399,1.7405529722691066697592440508757
400,1.7410572908112056886260293962156
401,1.7415603528369637040937706659059
402,1.7420621646299113517936372315194
403,1.7425627324269594034946665407776
404,1.7430620624188644656726832675239
405,1.7435601607506860942909168084239
406,1.7440570335222414351379627678700
407,1.7445526867885545067681692563125
408,1.7450471265602976295663574193492
409,1.7455403588042278623478392418870
410,1.7460323894436209613138687287615
411,1.7465232243586971217298004827928
412,1.7470128693870420852702222949637
413,1.7475013303240246924507636004233
414,1.7479886129232073043666810156031
415,1.7484747228967533780741995912991
416,1.7489596659158286256344587656528
417,1.7494434476109986056985831489165
418,1.7499260735726199112724293082935
419,1.7504075493512292325809581953050
420,1.7508878804579252773716311957725
421,1.7513670723647475012665985517493
422,1.7518451305050509302008163076658
423,1.7523220602738749115298879286519
424,1.7527978670283094079851883931138
425,1.7532725560878552142961908377768
426,1.7537461327347817037922672389857
427,1.7542186022144795900963194486401
428,1.7546899697358087180842034368342
429,1.7551602404714447970000743173059
430,1.7556294195582179383440643809924
431,1.7560975120974505027045887100696
432,1.7565645231552914055839083948171
433,1.7570304577630422206543181812883
434,1.7574953209174861789346540982625
435,1.7579591175812078881268688515749
436,1.7584218526829116736788689064176
437,1.7588835311177367035307451266059
438,1.7593441577475678792091720178457
439,1.7598037374013431751853708624412
440,1.7602622748753584983369339178774
441,1.7607197749335672280046889983950
442,1.7611762423078780009397911369859
443,1.7616316816984503895063910338795
444,1.7620860977739830931839126964431
445,1.7625394951720039747275902388868
446,1.7629918784991529660399446416694
447,1.7634432523314650136463711228726
448,1.7638936212146462827176160349308
449,1.7643429896643514608922554350466
450,1.7647913621664543151183504005450
451,1.7652387431773190053888945548877
452,1.7656851371240649975284672307902
453,1.7661305484048313189214635945805
454,1.7665749813890365469727025062114
455,1.7670184404176381550275869847668
456,1.7674609298033865136302745659952
457,1.7679024538310782437200812279018
458,1.7683430167578053185803718599516
459,1.7687826228132024293995105240211
460,1.7692212761996922577435621379909
461,1.7696589810927265056425081863955
462,1.7700957416410258973398204935129
463,1.7705315619668177575013747405900
464,1.7709664461660693278292841479892
465,1.7714003983087207918895720913893
466,1.7718334224389151399401054141795
467,1.7722655225752241553924535494831
468,1.7726967027108755396923175294386
469,1.7731269668139736534849429156522
470,1.7735563188277213997967358897691
471,1.7739847626706375175690246582855
472,1.7744123022367735844017497658208
473,1.7748389413959260806919433074750
474,1.7752646839938510204668689163347
475,1.7756895338524700730092448750720
476,1.7761134947700806904467299621061
477,1.7765365705215605757066997153477
478,1.7769587648585711682593260870581
479,1.7773800815097590384964291945843
480,1.7778005241809555868369335316460
481,1.7782200965553735999633980297710
482,1.7786388022938042345555703273910
483,1.7790566450348098101246600003478
484,1.7794736283949152323527346759308
485,1.7798897559687995255001775240581
486,1.7803050313294820604013884194856
487,1.7807194580285103285989522028516
488,1.7811330395961438609132843644000
489,1.7815457795415375203997323068847
490,1.7819576813529220346377746337587
491,1.7823687484977839034926331264290
492,1.7827789844230432724472944560411
493,1.7831883925552297484650480975718
494,1.7835969763006572544241612580951
495,1.7840047390455961166736280226366
496,1.7844116841564456322328670676254
497,1.7848178149799028033117185915914
498,1.7852231348431311866111798472893
499,1.7856276470539273569921703321692
500,1.786031354900887118303597333059
501,1.786434261653567209763703860535
502,1.786836370562649965479748795024
503,1.787237684860102397712187501813
504,1.787638207759337550251683158301
505,1.788037942455370971973687772142
506,1.788436892124978043324260134279
507,1.788835059926850006500069554675
508,1.789232449001748342083167205895
509,1.789629062472655725900816394545
510,1.790024903444929622296293563241
511,1.790419975006451747920633780149
512,1.790814280227777309350584201505
513,1.791207822162282633467358510868
514,1.791600603846311870342596771130
515,1.791992628299323146306500859449
516,1.792383898524032381053049219097
517,1.792774417506555847138711173173
518,1.793164188216553260978539967018
519,1.793553213607368191095854118070
520,1.793941496616168644559373211784
521,1.794329040164084630861991590519
522,1.794715847156346983589466673219
523,1.795101920482423881290105014014
