Eigenstate,Potential Energy
1,0.500000000019022806974029290283672669
2,0.64623093777528553139711802406553069
3,0.73633761006971724230550535927901307
4,0.79966527857395285532417457566031427
5,0.8480465766016637482454089549659369
6,0.8870659989066116428057397426302724
7,0.9197208269265428445610743391052004
8,0.9477838470381837108453235782431670
9,0.9723835582476892101842711816768459
10,0.9942802147035547015154755771927076
11,1.0140093865467680895585124253794341
12,1.0319621690819226223205726325322105
13,1.0484326923747984360616874877964541
14,1.0636476541085181825712378199816284
15,1.0777854353977283538078436279754086
16,1.090988905659042177562749339461650
17,1.103374256072542640954731138069928
18,1.115037250587981160973696798245152
19,1.126057749028754723621301779202989
20,1.136503044725842034416202851098838
21,1.146430370599500515594191507692644
22,1.155888810318006325221492742993112
23,1.164920776234178939656235166260819
24,1.173563166785803266114093917603311
25,1.181848283291556004655323392556858
26,1.189804563758593380418895964077054
27,1.197457175845126968297703752337298
28,1.204828500219463524842546712719791
29,1.211938527761956921852784963402682
30,1.218805188406832707631255792274060
31,1.225444625274907322381494844447393
32,1.231871424670324409920050279399569
33,1.238098810204782864059567091212372
34,1.244138807562184982103320667179940
35,1.250002385077438032384356610573798
36,1.255699574269663664389182810585067
37,1.261239573665985041617239473446357
38,1.266630838621642834290630084901645
39,1.271881159344342559595514449277491
40,1.276997728934914973660328995452890
41,1.281987202939620945811234811609328
42,1.286855751654439644185823993567955
43,1.291609106215192516907698648001355
44,1.296252599339261537551883839635730
45,1.300791201447090614660291729181599
46,1.305229552778522782495054971648812
47,1.309571992025549177904680715408271
48,1.313822581925459443945509603803248
49,1.317985132193720657017669153278020
50,1.32206322012178916063256016786949
51,1.32606020911959272646577834133592
52,1.32997926544407524905786047043539
53,1.33382337332274606198590000451214
54,1.33759534865361483187855682539464
55,1.34129785143941749413995521363262
56,1.34493339709396412412685511265583
57,1.34850436674124067240797277335481
58,1.35201301661309930644635401702644
59,1.35546148663861815377313290609101
60,1.35885180830718673402094556673404
61,1.36218591187780913968259390806420
62,1.36546563299881602034872942948958
63,1.36869271879493453615919104353202
64,1.37186883347235296628177034145630
65,1.37499556348688181826040987013245
66,1.37807442231546594502169984060890
67,1.38110685486703988500350314658185
68,1.38409424156496248006170400870047
69,1.38703790212995415508484209159000
70,1.38993909908953197498296618437426
71,1.39279904103733889098625487798735
72,1.39561888566346534580960606965681
73,1.39839974257480840083617639918863
74,1.40114267592269469992039273740563
75,1.40384870685336248330818619932108
76,1.40651881579544830841715965276057
77,1.40915394459732173580147408409409
78,1.41175499852594544044617781211925
79,1.41432284813789138854360051926732
80,1.41685833103220559426010227848366
81,1.41936225349396462952491115899498
82,1.42183539203660560931939150963796
83,1.42427849485042264115544812665197
84,1.42669228316399843571571297471393
85,1.42907745252478049945450632619847
86,1.43143467400449546456929418686604
87,1.43376459533463764095251381904313
88,1.43606784197684449699796739940447
89,1.43834501813258827397450813779098
90,1.44059670769626972195048209074161
91,1.44282347515547849320170754167609
92,1.44502586644189643149665363734680
93,1.44720440973605774059687523004665
94,1.44935961622893708657264176264887
95,1.45149198084311553450471369416364
96,1.45360198291607239802678686402183
97,1.45569008684796673805353014762504
98,1.45775674271609937274443656707952
99,1.45980238685809278856457321425126
100,1.46182744242568000188727809148203
101,1.46383231991086411642933514718742
102,1.46581741764608474708811963236073
103,1.46778312227991956713729315550409
104,1.46972980922974197102724467769890
105,1.47165784311266277127955698499924
106,1.47356757815599308372107004104046
107,1.47545935858838747334770959516990
108,1.47733351901274719355385048126395
109,1.47919038476189475792882726563161
110,1.48103027223796866369715072813245
111,1.48285348923642122468045727434734
112,1.48466033525545303802575416689075
113,1.48645110179166207315042957308477
114,1.48822607262263661359819571281630
115,1.48998552407718083399750897047222
116,1.49172972529381346266583073461563
117,1.49345893846814826739630505456881
118,1.49517341908972407085788390959446
119,1.49687341616881828832360189463239
120,1.49855917245375213820673862081840
121,1.50023092463915740864038909333362
122,1.50188890356565575020315055861215
123,1.50353333441136927196165377614809
124,1.50516443687566353819200456560885
125,1.50678242535549449687909334836791
126,1.50838750911471567379515782182805
127,1.50997989244668138807261417157501
128,1.51155977483045915799625493301359
129,1.51312735108095239250182340881295
130,1.51468281149321608200070340659895
131,1.51622634198123279803238069677316
132,1.51775812421140133404554673609409
133,1.51927833573097853802474731876328
134,1.52078715009170361172063181876479
135,1.52228473696881604289935865627715
136,1.52377126227567464949637380070454
137,1.52524688827417190661615771695467
138,1.52671177368112411532896828943632
139,1.52816607377081586630996316068084
140,1.52960994047386180539785611467411
141,1.53104352247254415066026228476008
142,1.53246696529277633728581312188416
143,1.53388041139283451645390244212571
144,1.53528400024899145469579048772154
145,1.53667786843818319250188288600015
146,1.53806214971783095217892151955957
147,1.53943697510293258199490364224397
148,1.54080247294053886561619353537100
149,1.54215876898171649776698182223469
150,1.54350598645110136696411426864989
151,1.54484424611413805955641293689016
152,1.54617366634209588421316319426992
153,1.54749436317495036652957748293791
154,1.54880645038221411296513561941780
155,1.55011003952179528008096197748567
156,1.55140523999696151541224760865478
157,1.55269215911148041655175540437334
158,1.55397090212300832651794461338642
159,1.5552415722947911382132438380329
160,1.5565042709457434454823148204482
161,1.5577590974989645368613573945096
162,1.5590061495287506930899566461285
163,1.5602455228061586416548677703301
164,1.5614773113431748049308380266110
165,1.5627016074355389421061505463965
166,1.5639185017042727004517623617895
167,1.5651280831359603082235022001090
168,1.5663304391218240980809408657627
169,1.5675256554956399230835643188361
170,1.5687138165705322083499968768817
171,1.5698950051746888328110986560572
172,1.5710693026860337076848766287967
173,1.5722367890658924539739638261448
174,1.5733975428916870224696598932034
175,1.5745516413886932411654876028163
176,1.5756991604608909964030571965236
177,1.5768401747209403082576198751761
178,1.5779747575193124545294206248894
179,1.5791029809726025882565367825324
180,1.5802249159910547951179669143806
181,1.5813406323053222392829752647986
182,1.5824501984924900930617879540559
183,1.5835536820013842996013834957542
184,1.5846511491771904101320647317167
185,1.5857426652854043038577361861300
186,1.5868282945351357590787768111693
187,1.5879081001017886760142854869981
188,1.5889821441491333876074519361123
189,1.5900504878507947893708784497328
190,1.5911131914111719393155595678639
191,1.5921703140858083504810700918155
192,1.5932219142012293582348615850600
193,1.5942680491742648661529983779931
194,1.5953087755308708112287542434250
195,1.5963441489244672807309309791382
196,1.5973742241538069725744586116218
197,1.5983990551803883744863933837544
198,1.5994186951454278239082790842180
199,1.6004331963864032824502141835555
200,1.6014426104531837650574617259256
201,1.6024469881237554002682118398540
202,1.6034463794195574976736818013682
203,1.6044408336204392772623774887993
204,1.6054303992792488755098824354364
205,1.6064151242360645935260124561453
206,1.6073950556320814059560608906850
207,1.6083702399231586012614721269202
208,1.6093407228930427747843547275608
209,1.6103065496662719174232650300881
210,1.6112677647207720955190894188957
211,1.6122244119001540809072452609470
212,1.6131765344257201582580975599344
213,1.6141241749081854875933488266709
214,1.6150673753591289976616975343923
215,1.6160061772021730163982771605360
216,1.6169406212839055929181541813441
217,1.6178707478845494700790823132648
218,1.6187965967283866800562141280069
219,1.6197182069939420358573755132367
220,1.6206356173239380268993242155833
221,1.6215488658350190209272556086765
222,1.6224579901272619696354350552279
223,1.6233630272934671788124017263130
224,1.6242640139282442023010652421985
225,1.6251609861368954163083069500922
226,1.6260539795441008119968908526943
227,1.6269430293024126491979763408852
228,1.6278281701005617814354415340678
229,1.6287094361715828043970484783662
230,1.6295868613007627140805883767104
231,1.6304604788334148638692434866667
232,1.6313303216824886294403928236973
233,1.6321964223360097669958378246558
234,1.6330588128643676108626499486434
235,1.6339175249274422815477373081662
236,1.6347725897815816029974109045110
237,1.6356240382864313491716423050017
238,1.6364719009116205509263679432779
239,1.6373162077433072987658073001027
240,1.6381569884905871948631935478847
241,1.6389942724917687356794116307804
242,1.6398280887205184811102609141245
243,1.6406584657918800409155114736953
244,1.6414854319681685666455647839703
245,1.6423090151647451221559196884890
246,1.6431292429556734512561183894467
247,1.6439461425792605242575145894255
248,1.6447597409434884439527109397834
249,1.6455700646313326795207538300570
250,1.6463771399059770124570190925548
251,1.6471809927159230939332101754798
252,1.6479816486999974114805007186199
253,1.6487791331922607365923559508202
254,1.6495734712268197094971558394158
255,1.6503646875425444405232761247115
256,1.6511528065876922128165545597745
257,1.6519378525244436771475794036530
258,1.6527198492333479828606549881594
259,1.6534988203176836478079763812931
260,1.6542747891077355529664952122864
261,1.6550477786649883747875895937295
262,1.6558178117862411800045667883200
263,1.6565849110076420327777713041863
264,1.6573490986086480643280923149270
265,1.6581103966159095295841443214722
266,1.6588688268070800178731413588416
267,1.6596244107145560301850409522187
268,1.6603771696291459560065411247799
269,1.6611271246036727189215863841573
270,1.6618742964565058143999345972802
271,1.6626187057750320230075960686364
272,1.6633603729190587778804182968659
273,1.6640993180241576288522843617758
274,1.6648355610049450115323920429059
275,1.6655691215583041961878772700154
276,1.6663000191665466940607833019997
277,1.6670282731005206044099706956686
278,1.6677539024226576562019682669011
279,1.6684769259899704468959131759036
280,1.6691973624569919711684777179384
281,1.6699152302786653283823836131740
282,1.6706305477131811050468692562187
283,1.6713433328247656446968375928922
284,1.6720536034864173617060913140148
285,1.6727613773825979062752238732773
286,1.6734666720118742053198839134114
287,1.6741695046895164385305375178439
288,1.6748698925500483513598420468129
289,1.6755678525497545529821037295493
290,1.6762634014691455317319831177086
291,1.6769565559153782289429463714753
292,1.6776473323246350560719722196808
293,1.6783357469644652608652744841219
294,1.6790218159360836794593782331436
295,1.6797055551766289615427087898212
296,1.6803869804613888541174507149221
297,1.6810661074059824755663708149929
298,1.6817429514685088967559469024620
299,1.6824175279516588320109517414873
300,1.6830898520047911905433963714986
301,1.6837599386259748997509944981918
302,1.6844278026639980932950618968565
303,1.6850934588203418370637426005891
304,1.6857569216511219705272201012454
305,1.6864182055690004919883440352354
306,1.6870773248450657509255738420705
307,1.6877342936106786293786163974007
308,1.6883891258592921908023488161657
309,1.6890418354482408856513237307084
310,1.6896924361004996488385104973441
311,1.6903409414064164839676779846155
312,1.6909873648254160474692746240297
313,1.6916317196876756253852291352020
314,1.6922740191957753070734176129440
315,1.6929142764263216754719290071731
316,1.6935525043315463895616814051416
317,1.6941887157408771976297788662924
318,1.6948229233624867325754661448476
319,1.6954551397848162308172803616416
320,1.6960853774780741760571828318202
321,1.6967136487957137868325865461080
322,1.6973399659758854622842016529271
323,1.6979643411428677001760918112921
324,1.6985867863084754643042425220687
325,1.6992073133734477632715345974571
326,1.6998259341288126778529355751856
327,1.7004426602572326577028108931781
328,1.7010575033343272765962441278805
329,1.7016704748299784210595958803166
330,1.7022815861096143440533335230267
331,1.7028908484354740222798657004514
332,1.7034982729678528783374356540565
333,1.7041038707663302462542658247870
334,1.7047076527909767644052902313529
335,1.7053096299035460107228416650831
336,1.7059098128686464382315969082864
337,1.7065082123548964831326627636711
338,1.7071048389360639042672297109375
339,1.7076997030921854184456216721971
340,1.7082928152106727229606268881552
341,1.7088841855874006188410913429562
342,1.7094738244277797319741072660406
343,1.7100617418478134698631739645132
344,1.7106479478751392077081273500361
345,1.7112324524500555231193739001715
346,1.7118152654265329542398382131024
347,1.7123963965732118466117042086473
348,1.7129758555743841004904210443875
349,1.7135536520309623635089335434474
350,1.7141297954614342110112686976918
351,1.7147042953028034016379267952877
352,1.7152771609115178905067177768327
353,1.7158484015643838843463589127904
354,1.7164180264594673530380317089405
355,1.7169860447169833628279803148852
356,1.7175524653801714409790671474555
357,1.7181172974161602108857889177315
358,1.7186805497168205416392475489794
359,1.7192422310996029571673504855162
360,1.7198023503083682428555367043448
361,1.7203609160142029945037089810743
362,1.7209179368162265912063427494168
363,1.7214734212423841877557102868951
364,1.7220273777502307505499717659144
365,1.7225798147277043733605903141433
366,1.7231307404938877506169050753877
367,1.7236801632997607002064624182336
368,1.7242280913289405245086895893246
369,1.7247745326984148421960811103358
370,1.7253194954592626039673619089400
371,1.7258629875973661455113055042745
372,1.7264050170341132341695411152774
373,1.7269455916270890760041782827978
374,1.7274847191707625917394342013895
375,1.7280224073971576531367601713443
376,1.7285586639765207360097478114354
377,1.7290934965179767790789848857441
378,1.7296269125701764160686024814495
379,1.7301589196219364208366111274844
380,1.7306895251028701222936227585813
381,1.7312187363840106645359828563852
382,1.7317465607784242303532522094321
383,1.7322730055418179027617830507929
384,1.7327980778731371282545919149509
385,1.7333217849151564030123216137587
386,1.7338441337550638407168874387895
387,1.7343651314250353712927540551850
388,1.7348847849028025073625973802157
389,1.7354031011122143530899672304378
390,1.7359200869237910445016740523635
391,1.7364357491552689382167276726931
392,1.7369500945721411569440480957228
393,1.7374631298881909652201960801509
394,1.7379748617660165564689217989964
395,1.7384852968175501082388952429504
396,1.7389944416045707564713261116087
397,1.7395023026392111186888786219626
398,1.7400088863844573742236578116634
399,1.7405141992546414672584449216887
400,1.7410182476159297326219264949435
401,1.7415210377868039932402636399114
402,1.7420225760385358744439518037129
403,1.7425228685956571558527166108411
404,1.7430219216364240539099371553807
405,1.7435197412932729004946129902327
406,1.7440163336532733266273271170943
407,1.7445117047585760679724518915141
408,1.7450058606068528953125835289512
409,1.7454988071517315310542175382132
410,1.7459905503032280662248090236298
411,1.7464810959281711379609887436188
412,1.7469704498506214500590155412746
413,1.7474586178522877156285868110646
414,1.7479456056729354456774494592632
415,1.7484314190107928675706556917426
416,1.7489160635229504029790870048907
417,1.7493995448257565537859532486161
418,1.7498818684952073591686619458927
419,1.7503630400673337023494191583647
420,1.7508430650385814489181250895689
421,1.7513219488661883688924222949568
422,1.7517996969685571240988206874769
423,1.7522763147256221569963892080077
424,1.7527518074792140946483729403797
425,1.7532261805334180471828161966548
426,1.7536994391549294075628148626856
427,1.7541715885734046372763444993476
428,1.7546426339818070516135376699804
429,1.7551125805367515168982819052570
430,1.7555814333588409217595702024225
431,1.7560491975330019260753373519891
432,1.7565158781088171370818365237295
433,1.7569814801008490505231395775304
434,1.7574460084889668547563965895227
435,1.7579094682186639214637275533979
436,1.7583718642013738839381584172263
437,1.7588332013147834642896303530914
438,1.7592934844031410316113440459299
439,1.7597527182775615723862335640468
440,1.7602109077163291443223125819105
441,1.7606680574651939734441911801264
442,1.7611241722376677580614493534116
443,1.7615792567153168272829550343655
444,1.7620333155480477734212874361537
445,1.7624863533543948889190868914008
446,1.7629383747218004321186360865205
447,1.7633893842068948910153546036998
448,1.7638393863357704631677598668980
449,1.7642883856042555922399853600124
450,1.7647363864781827135880129062222
451,1.7651833933936567119542555260195
452,1.7656294107573169325879288576614
453,1.7660744429465984888325412404639
454,1.7665184943099892550978177132601
455,1.7669615691672861690565256018791
456,1.7674036718098461400333117857940
457,1.7678448065008362592595634829397
458,1.7682849774754797078579160833959
459,1.7687241889412998764477466981042
460,1.7691624450783623386803411062001
461,1.7695997500395125283945659156390
462,1.7700361079506123334083418756095
463,1.7704715229107742096820111585338
464,1.7709059989925909767235862033917
465,1.7713395402423652629354213601002
466,1.7717721506803357315630421934338
467,1.7722038343008993677251828116917
468,1.7726345950728348421288528527662
469,1.7730644369395194281286558436562
470,1.7734933638191469966328304806639
471,1.7739213796049413559244326121365
472,1.7743484881653692339705872743752
473,1.7747746933443482540825429710456
474,1.7751999989614574078805185647313
475,1.7756244088121389482776271957836
476,1.7760479266679042162474146767344
477,1.7764705562765337343295912046615
478,1.7768923013622762428202736423040
479,1.7773131656260455679879255106162
480,1.7777331527456157168520722801292
481,1.7781522663758127493554673607972
482,1.7785705101487069966710410381441
483,1.7789878876738010055952441220664
484,1.7794044025382160287346498480578
485,1.7798200583068785373150768512189
486,1.7802348585227013413567812038317
487,1.7806488067067661659490341501191
488,1.7810619063585022800592152487416
489,1.7814741609558644059248553804000
490,1.7818855739555077720203021469026
491,1.7822961487929624437449008851223
492,1.7827058888828055198813460003695
493,1.7831147976188311696921457558220
494,1.7835228783742196045518978224163
495,1.7839301345017031764650308037595
496,1.7843365693337328477432337639976
497,1.7847421861826407172123928646888
498,1.7851469883408025480503131550443
499,1.7855509790807977944208342861744
500,1.785954161655569257217969887141
501,1.786356539298578114771182200575
502,1.786758115223961783499754342440
503,1.787158892626686076447776907995
504,1.787558874682699503337321625632
505,1.787958064549082559402037436205
506,1.788356465364197732881361875853
507,1.788754080247838078991630586708
508,1.789150912301374000117582396468
509,1.789546964607896462895502674090
510,1.789942240232362705202434340054
511,1.790336742221737663901749290494
512,1.790730473605135023314109163305
513,1.791123437393956499922246845512
514,1.791515636582030039543571591531
515,1.791907074145747301039736729803
516,1.792297753044198636723705200870
517,1.792687676219306644025141815314
518,1.793076846595960073624102478314
519,1.793465267082144875819691127358
520,1.793852940569075241961167489597
521,1.794239869931321435993607091245
522,1.794626058026938692143127642554
523,1.795011507697593615722958018352
