Eigenstate,Potential Energy
1,0.500000000017117851496550672617547130
2,0.64623093776285098852683059277351511
3,0.73633761003319183864475569006519900
4,0.79966527849787478895608272132322395
5,0.8480465764698813636418217497859341
6,0.8870659987026908617281583193718323
7,0.9197208266339173542183915612722629
8,0.9477838466402176622327042522401027
9,0.9723835577277064313569281576955244
10,0.9942802140448535784994904420665568
11,1.0140093857326297002751367929395468
12,1.0319621680956154323824671957871358
13,1.0484326911995811228724943195663579
14,1.0636476527276413822934789937197309
15,1.0777854337944357585499298685138703
16,1.090988903816571224437303493426255
17,1.103374253974124935685393511657855
18,1.115037248216842723513868469230934
19,1.126057746368116111194552245059438
20,1.136503041758918378115083121896581
21,1.146430367309501494719916091641314
22,1.155888806688136095923758935471626
23,1.164920772247636029448835663844275
24,1.173563162425780442510197925161926
25,1.181848278541240123893226091073304
26,1.189804558601165220669413698410399
27,1.197457170263761050628042824751283
28,1.204828494197327924410281308989177
29,1.211938521282213071220369210026193
30,1.218805181452635193661383722535525
31,1.225444617829403677852563466491481
32,1.231871416716654900758631374691363
33,1.238098801726080272901943147630107
34,1.244138798541574388755771705233797
35,1.250002375498036591641242195205188
36,1.255699564114580381581142228891917
37,1.261239562918320546193322116878401
38,1.266630827264489151683632138803741
39,1.271881147360782881576095620337184
40,1.276997716308023427350202239662703
41,1.281987189652462361497098551871272
42,1.286855737690069322052310697115531
43,1.291609091556655992788402774412893
44,1.296252583969594347781674306228138
45,1.300791185349318060098948360577775
46,1.305229535935659691781290464349751
47,1.309571974420599669990415545559676
48,1.313822563541416689952528110665073
49,1.317985113013566641452246771230443
50,1.32206320012849444198811173274493
51,1.32606018829611619723884550488585
52,1.32997924377336389519872914944626
53,1.33382335078773472180166836466687
54,1.33759532523722595440350190940710
55,1.34129782712456089698546514107791
56,1.34493337186353675082097200909669
57,1.34850434057812634923265061530146
58,1.35201298950016849877884655059562
59,1.35546145855872772193645595443204
60,1.35885177924317968864705717296856
61,1.36218588181251439659080706262829
62,1.36546560191504815494086344270662
63,1.36869268667549353733208219799424
64,1.37186880030002398985698586853997
65,1.37499552924443493993030062584300
66,1.37807438698565591281031232079376
67,1.38110681843260587124032043866754
68,1.38409420400862783286568168643513
69,1.38703786343442614935576318333975
70,1.38993905923750156289674231089887
71,1.39279900001148045199042992409369
72,1.39561884344643643611500736612061
73,1.39839969914924950240034462173185
74,1.40114263127122896891816760118962
75,1.40384866095859549808457159905523
76,1.40651876863996781691737046943037
77,1.40915389616369740247286164924868
78,1.41175494879672859260655110312642
79,1.41432279709561476221026754589297
80,1.41685827865938307943381585530236
81,1.41936219977309101492274813518991
82,1.42183533695015632655045288195250
83,1.42427843838085350833314877960022
84,1.42669222529374540050030222170398
85,1.42907739323625938151935208818367
86,1.43143461328010169748436513320443
87,1.43376453315674601347838512055381
88,1.43606777832780889378358595352851
89,1.43834495299474141565187149701503
90,1.44059664105192290461929268952823
91,1.44282340698692132729699110438117
92,1.44502579673139658003225334743706
93,1.44720433846586065677765439275887
94,1.44935954338126575076816960050237
95,1.45149190640017019057713316229420
96,1.45360190686003028900550148591408
97,1.45569000916098184114928160549906
98,1.45775666338030213369529228478556
99,1.45980230585558985530627430826406
100,1.46182735973855395754034639546561
101,1.46383223552117321159528153581537
102,1.46581733153586263144703704016454
103,1.46778303443117502033907684912954
104,1.46972971962445863286860626150950
105,1.47165775173279887115897161904013
106,1.47356748498348116936373280393051
107,1.47545926360513413879252205222255
108,1.47733342220063280639442076409801
109,1.47919028610277318580040875690480
110,1.48103017171366700000140000878859
111,1.48285338682873951353983745612259
112,1.48466023094616399845936866770893
113,1.48645099556251082246302654324685
114,1.48822596445534038997401214830835
115,1.48998541395342871829060769588133
116,1.49172961319526609937851434888592
117,1.49345882437643758483715570033310
118,1.49517330298645300047091169592211
119,1.49687329803556048317996050692877
120,1.49855905227205169065040550984906
121,1.50023080239052856707915688102854
122,1.50188877923158263503624120452268
123,1.50353320797330559063520579715860
124,1.50516430831503229937364285777222
125,1.50678229465368772374273848042059
126,1.50838737625309411640719058142138
127,1.50997975740657423487045288885168
128,1.51155963759316374635035639441486
129,1.51312721162773391835207380402374
130,1.51468266980530730855811002170589
131,1.51622619803983376353693180747987
132,1.51775797799767905857103835436708
133,1.51927818722606672932136137296249
134,1.52078699927670237008595607748311
135,1.52228458382479156506851670789862
136,1.52377110678365893154187440096673
137,1.52524673041516244584801297537802
138,1.52671161343608361118558438278302
139,1.52816591112067192023025965780977
140,1.52960977539950661966499790123108
141,1.53104335495483422620735532257446
142,1.53246679531253217045385342212820
143,1.53388023893084029469219761650465
144,1.53528382528599475119504883294508
145,1.53667769095489465975007623301756
146,1.53806196969492401442999766120864
147,1.53943679252104312664035055259514
148,1.54080228778026493344940974887970
149,1.54215858122361797213034365777130
150,1.54350579607569966176856642389301
151,1.54484405310191580616339970959752
152,1.54617347067349661716856265354194
153,1.54749416483037820813931151501353
154,1.54880624934203345670208266469353
155,1.55010983576633047281266456399446
156,1.55140503350649653843891508227297
157,1.55269194986625856544397314808696
158,1.55397069010323188974342190884770
159,1.5552413574806210745419050129913
160,1.5565040533172990601589366159611
161,1.5577588770363231565349332277512
162,1.5590059262119473394888373528984
163,1.5602452966151857039967652190503
164,1.5614770822579817110565946234932
165,1.5627013754360318283261970815586
166,1.5639182667703140800940850997723
167,1.5651278452473687388718739692470
168,1.5663301982583738474920945150166
169,1.5675254116370606337719487820659
170,1.5687135696965085608286325474433
171,1.5698947552648602074770347236137
172,1.5710690497199938453376498526051
173,1.5722365330231891149553811884307
174,1.5733972837518216444131717610336
175,1.5745513791311205953433457555535
176,1.5756988950650188426593500227160
177,1.5768399061661290485152385052679
178,1.5779744857848747848589101684546
179,1.5791027060378031494947157223497
180,1.5802246378351098220241358687084
181,1.5813403509073992082204070044363
182,1.5824499138317073681921965246684
183,1.5835533940568107775799146954084
184,1.5846508579278451632902915407344
185,1.5857423707102562218620900852774
186,1.5868279966131031890517347470552
187,1.5879077988117390611055610729384
188,1.5889818394698829040023371536757
189,1.5900501797611079817228205972174
190,1.5911128798897613545899941732407
191,1.5921699991113341701973666938894
192,1.5932215957522990290932259402674
193,1.5942677272294327290330799340760
194,1.5953084500686377285465809686717
195,1.5963438199232802621407373185078
196,1.5973738915920587990018603273594
197,1.5983987190364172204793069731347
198,1.5994183553975168782918405823353
199,1.6004328530127803672719073907782
200,1.6014422634320209528085470769187
201,1.6024466374331686293674578866167
202,1.6034460250376061861992998491548
203,1.6044404755251259349179827712720
204,1.6054300374485187138101966657738
205,1.6064147586478051341878998064501
206,1.6073946862641220874804587294825
207,1.6083698667532703836915826507725
208,1.6093403458989377426254619741182
209,1.6103061688256028807093476991715
210,1.6112673800111321890113740687278
211,1.6122240232990763614096997187280
212,1.6131761419106772000347774188703
213,1.6141237784565889758723617003528
214,1.6150669749483293202105170448481
215,1.6160057728094588531549661000627
216,1.6169402128865035036629811813070
217,1.6178703354596234801308950948057
218,1.6187961802530378639778167307085
219,1.6197177864452080991540776116588
220,1.6206351926787928856946583636631
221,1.6215484370703723795997993220622
222,1.6224575572199588964005283723930
223,1.6233625902202876792324564169969
224,1.6242635726659027907080276483203
225,1.6251605406620406851217279407512
226,1.6260535298333149989209089255090
227,1.6269425753322112022804587230808
228,1.6278277118473929219723389761098
229,1.6287089736118270876649492893460
230,1.6295863944107325878803111422709
231,1.6304600075893542248631613379552
232,1.6313298460605723772660847838043
233,1.6321959423123433561385674343441
234,1.6330583284149866002689478796254
235,1.6339170360283118819623120667250
236,1.6347720964085962220054747462995
237,1.6356235404154141339285552182617
238,1.6364713985183229285564275941033
239,1.6373157008034085144118587079878
240,1.6381564769796938473685636815971
241,1.6389937563854143108835793768648
242,1.6398275679941628827395375658072
243,1.6406579404209091190498006782373
244,1.6414849019278936437422186763617
245,1.6423084804304025166115060799571
246,1.6431287035024239984867647220854
247,1.6439455983821890952783995258445
248,1.6447591919776034614370888504187
249,1.6455695108715656313187350147533
250,1.6463765813271819625542336488568
251,1.6471804292928761908292550938669
252,1.6479810804073963939670180967427
253,1.6487785600047244369103131536475
254,1.6495728931188875538528412392313
255,1.6503641044886759469423651834627
256,1.6511522185622664863153243593229
257,1.6519372595017589022003487594978
258,1.6527192511876209131422633172356
259,1.6534982172230490931899896785388
260,1.6542741809382458637456349766996
261,1.6550471653946129231247179141006
262,1.6558171933888658385524687653030
263,1.6565842874570686504756602107769
264,1.6573484698785939393407331553792
265,1.6581097626800068793632443681319
266,1.6588681876388754463184682235694
267,1.6596237662875099918826095785942
268,1.6603765199166322175210194899865
269,1.6611264695789778171198135245309
270,1.6618736360928285117823907505155
271,1.6626180400454827600243631148467
272,1.6633597017966591222080509688761
273,1.6640986414818397216078331171652
274,1.6648348790155510104005570049023
275,1.6655684340945857154371728590616
276,1.6662993262011642414243437103387
277,1.6670275746060430148064354504737
278,1.6677531983715615222717226298405
279,1.6684762163546395463277225176920
280,1.6691966472097166907913886875543
281,1.6699145093916420849975099243971
282,1.6706298211585117629735817291513
283,1.6713426005744569300075457174446
284,1.6720528655123802731236438980699
285,1.6727606336566471227068146101541
286,1.6734659225057274900010252885359
287,1.6741687493747940397525177454757
288,1.6748691313982723997538824963719
289,1.6755670855323484553331302956616
290,1.6762626285574333612947487022404
291,1.6769557770805841122331059354314
292,1.6776465475378825561043727514054
293,1.6783349561967767568115229072470
294,1.6790210191583797426965001078595
295,1.6797047523597277280645727232068
296,1.6803861715760053932802746635607
297,1.6810652924227281551394847648609
298,1.6817421303578907442487570906753
299,1.6824167006840788922467247577857
300,1.6830890185505458794502506482821
301,1.6837590989552543543403011872879
302,1.6844269567468855177972480956570
303,1.6850926066268128451910584669157
304,1.6857560631510439238329699381784
305,1.6864173407321318342917833098345
306,1.6870764536410553387712714150812
307,1.6877334160090650584990366606111
308,1.6883882418295031185519662945343
309,1.6890409449595923493805193417019
310,1.6896915391221953801748713118563
311,1.6903400379075472189726087127215
312,1.6909864547749588326368807747263
313,1.6916308030544931194507741953469
314,1.6922730959486150785980507683795
315,1.6929133465338154961700102480035
316,1.6935515677622095233371148457053
317,1.6941877724631076852871283573044
318,1.6948219733445646721713866895306
319,1.6954541829949030536178573181459
320,1.6960844138842119180658877640452
321,1.6967126783658243558538088208832
322,1.6973389886777699004866252402003
323,1.6979633569442054421201791379640
324,1.6985857951768235903973955732238
325,1.6992063152762402486148254384135
326,1.6998249290333596364421495219458
327,1.7004416481307195819469532638352
328,1.7010564841438142721160231443275
329,1.7016694485423994367280351130504
330,1.7022805526917763972403545436787
331,1.7028898078540564192626097257464
332,1.7034972251894064298373431418569
333,1.7041028157572764780619513302707
334,1.7047065905176071230536811558457
335,1.7053085603320210641688450403445
336,1.7059087359649950715060857554451
337,1.7065071280850150889183681864989
338,1.7071037472657155683636925871218
339,1.7076986039869991000799559881948
340,1.7082917086361424299024915503075
341,1.7088830715088845772801204038195
342,1.7094727028104995511172321982680
343,1.7100606126568533012094679019526
344,1.7106468110754448989578387335492
345,1.7112313080064337666738923409603
346,1.7118141133036504302487683998802
347,1.7123952367355943605227416442911
348,1.7129746879864157150575597197283
349,1.7135524766568845252139408297687
350,1.7141286122653448708530126818591
351,1.7147031042486561302438143190994
352,1.7152759619631209875200731533130
353,1.7158471946853994820429780264347
354,1.7164168116134105141250090804458
355,1.7169848218672211723772873596438
356,1.7175512344899220924480398205493
357,1.7181160584484920861761305242945
358,1.7186793026346512851458502889803
359,1.7192409758656985437677172291979
360,1.7198010868853420397903201032839
361,1.7203596443645148170979785438059
362,1.7209166569021817523812565694975
363,1.7214721330261325412796209908143
364,1.7220260811937657279773259141434
365,1.7225785097928620146068731907507
366,1.7231294271423457281172029961612
367,1.7236788414930373366046163707890
368,1.7242267610283938038238468583315
369,1.7247731938652414144127456908084
370,1.7253181480544967829945828535490
371,1.7258616315818789004560439802105
372,1.7264036523686111738692447778452
373,1.7269442182721134267622794394177
374,1.7274833370866881682076021851286
375,1.7280210165441918222871204524639
376,1.7285572643147023741394314847228
377,1.7290920880071752217892084306215
378,1.7296254951700904011598463485137
379,1.7301574932920930240607276790362
380,1.7306880898026236859034054593476
381,1.7312172920725417185720222521379
382,1.7317451074147384066075499138153
383,1.7322715430847448413565402649345
384,1.7327966062813293767748096839826
385,1.7333203041470883081294106869501
386,1.7338426437690304322405198643611
387,1.7343636321791512385874551005195
388,1.7348832763550006680646217026956
389,1.7354015832202451140599347461397
390,1.7359185596452208549476621623604
391,1.7364342124474792349215563794430
392,1.7369485483923272015302501988512
393,1.7374615741933606733855898169650
394,1.7379732965129893191246209657242
395,1.7384837219629556044814966597555
396,1.7389928571048477583199726679579
397,1.7395007084506062875173813484352
398,1.7400072824630240488170726595213
399,1.7405125855562384434232432419417
400,1.7410166240962200342776544320979
401,1.7415194044012536349201766740887
402,1.7420209327424126151315449770159
403,1.7425212153440292440800152873961
404,1.7430202583841589640432374078133
405,1.7435180679950360601319326345801
406,1.7440146502635268350318658913274
407,1.7445100112315774054649274411933
408,1.7450041568966536235451684421950
409,1.7454970932121759840875967303736
410,1.7459888260879520323294192787528
411,1.7464793613906005320625868519822
412,1.7469687049439709767478981865500
413,1.7474568625295595226514145003501
414,1.7479438398869177678290510021035
415,1.7484296427140586609031086987717
416,1.7489142766678559692444890766306
417,1.7493977473644401550278348725122
418,1.7498800603795878223770311141246
419,1.7503612212491090140931168443304
420,1.7508412354692273398671496119117
421,1.7513201084969568881425991712594
422,1.7517978457504752032098966169162
423,1.7522744526094901636537302803100
424,1.7527499344156043758578659512252
425,1.7532242964726734619075688170775
426,1.7536975440471618487090467636452
427,1.7541696823684935429354582463831
428,1.7546407166293979054659744362560
429,1.7551106519862543376841454879109
430,1.7555794935594287417199553006784
431,1.7560472464336092582673029006812
432,1.7565139156581384314687967611743
433,1.7569795062473371387422254889822
434,1.7574440231808313834623616876761
435,1.7579074714038697741485395691287
436,1.7583698558276395911244884129299
437,1.7588311813295796019950622597883
438,1.7592914527536886079793000324820
439,1.7597506749108304023786543310734
440,1.7602088525790362123678487806507
441,1.7606659905038017839347844573687
442,1.7611220933983826735889376891466
443,1.7615771659440873945064198684648
444,1.7620312127905630364545554806250
445,1.7624842385560826901270043450149
446,1.7629362478278257002090608105004
447,1.7633872451621579163132444316328
448,1.7638372350849051599562622935010
449,1.7642862220916277480522519754840
450,1.7647342106478882253323914185426
451,1.7651812051895198087542532929589
452,1.7656272101228883852172553430809
453,1.7660722298251538056240010808583
454,1.7665162686445268642038942353782
455,1.7669593309005255869381033788893
456,1.7674014208842261260517171983726
457,1.7678425428585129562459992511092
458,1.7682827010583247685325886197983
459,1.7687218996908985755602461187467
460,1.7691601429360116707411933299447
461,1.7695974349462192908664230213814
462,1.7700337798470911952243483977403
463,1.7704691817374457649569249257503
464,1.7709036446895797835222560929515
465,1.7713371727494978669619067873060
466,1.7717697699371386746316113539416
467,1.7722014402465971808737330726615
468,1.7726321876463480232333065113022
469,1.7730620160794624038755932043580
470,1.7734909294638260687063355171965
471,1.7739189316923526312611016152667
472,1.7743460266331965389355485502309
473,1.7747722181299610324177014639218
474,1.7751975100019086022746148075540
475,1.7756219060441628654059299468516
476,1.7760454100279143751276701473033
477,1.7764680257006206978388831983792
478,1.7768897567862054322160361469065
479,1.7773106069852550602743203318162
480,1.7777305799752140248318079496855
481,1.7781496794105765842048199872053
482,1.7785679089230790128747925309448
483,1.7789852721218875280756361341517
484,1.7794017725937847620076920250683
485,1.7798174139033562565048653152287
486,1.7802321995931715648972679720372
487,1.7806461331839668098003940001569
488,1.7810592181748232932646063010283
489,1.7814714580433453873310945592084
490,1.7818828562458355679841561952789
491,1.7822934162174687266449233182912
492,1.7827031413724643472529314247505
493,1.7831120351042565238021151328783
494,1.7835201007856629122259304525663
495,1.7839273417690508089803522047224
496,1.7843337613865036005960817957522
497,1.7847393629499832695681345750992
498,1.7851441497514929016819280733843
499,1.7855481250632366919390115796557
500,1.785951292137779579394680186115
501,1.786353654208202256755527956597
502,1.786755214488259009723442155320
503,1.787155976172529854014609533277
504,1.787555942436574813689548674620
505,1.787955116437083188053643660251
506,1.788353501312023537006410691555
507,1.788751100180792232652880255605
508,1.789147916144360216918903344685
509,1.789543952285416195838721146258
510,1.789939211668512323526990267671
511,1.790333697340205606683216248528
512,1.790727412329198929594754769381
513,1.791120359646480315144656017422
514,1.791512542285461098055545146000
515,1.791903963222113384436474116372
516,1.792294625415105007789864046432
517,1.792684531805933056037704466675
518,1.793073685319057754773553287702
519,1.793462088862033488504754505617
520,1.793849745325639816709013587264
521,1.794236657584009279755391536165
522,1.794622828494756270711214283842
523,1.795008260899103410013853473109
