Eigenstate,Potential Energy
1,0.500000000066448943768096195458061156
2,0.64623093808485921335012937759123599
3,0.73633761097906758283558659207453853
4,0.79966528046803328450964555496423871
5,0.8480465798826152115842135467024669
6,0.8870660039836235262575819875455916
7,0.9197208342121182683281454053513591
8,0.9477838569465829906412376544640658
9,0.9723835711942069731537597831549631
10,0.9942802311041538273330220405739888
11,1.0140094068178816297078291898172171
12,1.0319621936403413196756430929634778
13,1.0484327216376048467671791460990251
14,1.0636476884930476188085813106956182
15,1.0777854753215460083060065100966452
16,1.090988951539930413925972010750189
17,1.103374308328494897999197614421417
18,1.115037309637200293889317869358215
19,1.126057815289654402800198971833050
20,1.136503118617050302620669378813507
21,1.146430452539864901758489472271723
22,1.155888900726600102974805475647827
23,1.164920875530308242730661830261488
24,1.173563275389014855753248099768228
25,1.181848401621645540732560774314355
26,1.189804692235614087303052925004840
27,1.197457314889398614299083989566624
28,1.204828650251581654020391673513012
29,1.211938689202802291486887115245804
30,1.218805361677580895370165419852729
31,1.225444810797038475074462495596057
32,1.231871622865633112174954774685893
33,1.238099021495388109172695559457359
34,1.244139032370540231552735451873559
35,1.250002623826341352834719435771437
36,1.255699827382267933316368485323231
37,1.261239841565808214368334138135228
38,1.266631121732578266754048359181414
39,1.271881458090669381745718038088294
40,1.276998043741308510121332169864880
41,1.281987534231163180297540858908199
42,1.286856099856629725263392317024656
43,1.291609471753957302997498583697501
44,1.296252982640966179495133233716648
45,1.300791602938549174493963697853601
46,1.305229972887008887361352355008971
47,1.309572431178806708248855634276178
48,1.313823040551713255350970999355646
49,1.317985610721687335191932608883869
50,1.32206371898068780919757004803618
51,1.32606072873915578732577780159906
52,1.32997980625455935522044174332158
53,1.33382393575494292280009989082953
54,1.33759593313886215073024933488044
55,1.34129845840960991871094786703757
56,1.34493402698156422938183777978464
57,1.34850501997928997652383442387013
58,1.35201369363522931994294084070699
59,1.35546218787906146214332108609510
60,1.35885253420078811419268170357250
61,1.36218666286003671067620574806089
62,1.36546640950577242852036865100605
63,1.36869352126336817544572411906383
64,1.37186966233966923388457463371704
65,1.37499641919115440622563362177066
66,1.37807530529544816819257409410831
67,1.38110776556217604583686992017673
68,1.38409518041539927081603918412638
69,1.38703886957655209790114783427425
70,1.38994009557387690039242712046910
71,1.39280006700175345539091810847328
72,1.39561994155102058849307284899349
73,1.39840082882933534107205793290817
74,1.40114379298879597475583192623428
75,1.40384985517642402660922322456685
76,1.40651999582165107177131078183813
77,1.40915515677365345188140940184758
78,1.41175624330021242944636623874253
79,1.41432412595873040830953815829434
80,1.41685964234909573473699178919770
81,1.41936359875723925216010770574721
82,1.42183677169746433205974331906193
83,1.42427990936094336968749585136345
84,1.42669373297714944160341128192561
85,1.42907893809443254583566385105138
86,1.43143619578543398007820515643771
87,1.43376615378257494254283656507260
88,1.43606943754843206234593266640514
89,1.43834665128542906414884535418435
90,1.44059837888893055504151108802660
91,1.44282518484750246960828497713511
92,1.44502761509381541157561883142121
93,1.44720619780940487538577865589783
94,1.44936144418625940230257505838688
95,1.45149384914798657162620105529848
96,1.45360389203310490547760556672778
97,1.45569203724282542350366164576434
98,1.45775873485551370955921871614916
99,1.45980442120986988023347415489952
100,1.46182951945871750467171616108615
101,1.46383444009516322098942356758700
102,1.46581958145276321985416375784397
103,1.46778533018122485219831340858544
104,1.46973206169906435331538251930349
105,1.47166014062454860183527875877694
106,1.47356992118615806783072778918406
107,1.47546174761373002235150524695952
108,1.47733595451136184112893727066329
109,1.47919286721308564165883354869429
110,1.48103280212226307274622981125949
111,1.48285606703558321439668617866608
112,1.48466296145249711230568370276838
113,1.48645377687086693540350505065507
114,1.48822879706955898715677791193230
115,1.48998829837866935282539601354552
116,1.49173254993802263322538451283311
117,1.49346181394455250254158642423927
118,1.49517634588913179662849900731220
119,1.49687639478338612452149613068946
120,1.49856220337699915364586296330047
121,1.50023400836597945196659910700937
122,1.50189204059233985718961180460536
123,1.50353652523560815019281127968082
124,1.50516768199657013005711935544267
125,1.50678572527361662180445868498001
126,1.50839086433205075065229110766596
127,1.50998330346669123870781981805745
128,1.51156324215808489283558685696068
129,1.51313087522262937919371091967625
130,1.51468639295688899806721333615267
131,1.51622998127637076850868810451649
132,1.51776182184901315509636158034187
133,1.51928209222362798753471236570873
134,1.52079096595352484786541938092569
135,1.52228861271552909171311810026947
136,1.52377519842460098246018949457930
137,1.52525088534425010930206517911050
138,1.52671583219292564814326973521648
139,1.52817019424656091838947703484354
140,1.52961412343743524272235420657696
141,1.53104776844951155945426464862678
142,1.53247127481040016379319956001047
143,1.53388478498009030417859911114082
144,1.53528843843658418021260878184086
145,1.53668237175856370095146836829536
146,1.53806671870521249357187943708728
147,1.53944161029330744946067905686604
148,1.54080717487169513674303538339209
149,1.54216353819325488019079832439250
150,1.54351082348445214937443913504733
151,1.54484915151257816930003218244545
152,1.54617864065076605268651645322448
153,1.54749940694087240356318006339220
154,1.54881156415430829141488858026982
155,1.55011522385089783185311398785082
156,1.55141049543584224016129233715390
157,1.55269748621486040430201714420531
158,1.55397630144757779547282507356505
159,1.5552470443992273890281521990213
160,1.5565098163907289332904254029160
161,1.5577647168472050623540919959752
162,1.5590118433449937139672779495806
163,1.5602512916572117057734933954086
164,1.5614831557979241064924049861471
165,1.5627075280649680022407882606672
166,1.5639244990814811735661413740098
167,1.5651341578361829154967089386159
168,1.5663365917224496895058230169922
169,1.5675318865762306694650455739576
170,1.5687201267128429246873021816136
171,1.5699013949626864345047573842666
172,1.5710757727059168010249090356108
173,1.5722433399061110623805784541590
174,1.5734041751429624499733429646747
175,1.5745583556440380746288012117872
176,1.5757059573156292480024849758692
177,1.5768470547727276997595625238747
178,1.5779817213681568449108805464159
179,1.5791100292208845462373976445360
180,1.5802320492435483181885444425006
181,1.5813478511692156208273418823077
182,1.5824575035774069391944698429055
183,1.5835610739194046973525958981955
184,1.5846586285428722486339592131418
185,1.5857502327158047502024625463350
186,1.5868359506498328905365503524387
187,1.5879158455229032703187382522522
188,1.5889899795013508730335013806098
189,1.5900584137613873563496967345757
190,1.5911212085100208153499881952321
191,1.5921784230054262401441996728790
192,1.5932301155767830500545242182517
193,1.5942763436435980082041796986462
194,1.5953171637345268572765289536589
195,1.5963526315057126087870496702841
196,1.5973828017586541777509070296229
197,1.5984077284576197380510413434940
198,1.5994274647466189604681037309381
199,1.6004420629659469672102773840158
200,1.6014515746683139431245153673220
201,1.6024560506345713799909136174215
202,1.6034555408890483300335973307989
203,1.6044500947145083233526584809805
204,1.6054397606667385641617977038188
205,1.6064245865887813711667235878085
206,1.6074046196248208808050921274409
207,1.6083799062337308839974586459252
208,1.6093504922022980178376091703470
209,1.6103164226581260550751816378549
210,1.6112777420822327870140073087209
211,1.6122344943213468588079345210690
212,1.6131867225999147843020475269819
213,1.6141344695318225183334745428361
214,1.6150777771318465622006485773604
215,1.6160166868268338085539589016071
216,1.6169512394666240801839271044905
217,1.6178814753347193217710438507556
218,1.6188074341587084170666419856062
219,1.6197291551204509044639461019488
220,1.6206466768660320991063178990167
221,1.6215600375154875238458963982647
222,1.6224692746723138464397089678387
223,1.6233744254327598838365217561291
224,1.6242755263949127328756609769304
225,1.6251726136675815839637326732601
226,1.6260657228789827556928224327562
227,1.6269548891852345932704332056308
228,1.6278401472786640409854397838374
229,1.6287215313959320408771916463295
230,1.6295990753259824438691983634177
231,1.6304728124178162226558478574434
232,1.6313427755881013952803509244133
233,1.6322089973286136449264914625388
234,1.6330715097135237820090179121076
235,1.6339303444065252196809487227122
236,1.6347855326678111615460360969346
237,1.6356371053609051217221623497892
238,1.6364850929593465082869479153799
239,1.6373295255532367057048020703076
240,1.6381704328556478096730408348374
241,1.6390078442088982957548312208829
242,1.6398417885906984777689671588918
243,1.6406722946201697867313426681732
244,1.6414993905637395586025357630221
245,1.6423231043409157039742873753096
246,1.6431434635299437782838950452109
247,1.6439604953733478343615817279906
248,1.6447742267833626378888258356226
249,1.6455846843472522143042129075066
250,1.6463918943325251113007688050230
251,1.6471958826920442763654189113470
252,1.6479966750690343472986224127600
253,1.6487942968019914273578625197610
254,1.6495887729294950013222069882769
255,1.6503801281949258719480326527081
256,1.6511683870510902016247717623156
257,1.6519535736647560500173171413342
258,1.6527357119210988517966670846642
259,1.6535148254280626373533710664023
260,1.6542909375206373822428056405700
261,1.6550640712650527984648477636322
262,1.6558342494628932923556631349080
263,1.6566014946551329390253914570196
264,1.6573658291260959235474612278499
265,1.6581272749073409734804185179531
266,1.6588858537814719498079439674961
267,1.6596415872858778088848011446905
268,1.6603944967164019684430878549248
269,1.6611446031309453469140022471033
270,1.6618919273529987995473330598031
271,1.6626364899751142346225245718243
272,1.6633783113623083886553192716370
273,1.6641174116554067030529378295726
274,1.6648538107743245105773768216520
275,1.6655875284212894065357933535029
276,1.6663185840840030823948813787922
277,1.6670469970387501051750937496361
278,1.6677727863534453966160600121392
279,1.6684959708906319146288548080192
280,1.6692165693104206299488289902785
281,1.6699346000733806868650595710798
282,1.6706500814433772443460049202959
283,1.6713630314903602100611060567826
284,1.6720734680931010238887206747312
285,1.6727814089418842982262229458181
286,1.6734868715411503399040179168926
287,1.6741898732120936130532142731611
288,1.6748904310952135447622020218016
289,1.6755885621528223216458275912737
290,1.6762842831715104099174848313699
291,1.6769776107645676399665658312092
292,1.6776685613743627404123772953672
293,1.6783571512746852274743337026645
294,1.6790433965730446866411748719611
295,1.6797273132129295338504427637979
296,1.6804089169760328418098505851510
297,1.6810882234844351632555584299610
298,1.6817652482027536679708719560587
299,1.6824400064402543964958143017551
300,1.6831125133529293812052529398651
301,1.6837827839455390462686400706136
302,1.6844508330736219794994075427513
303,1.6851166754454692493010182864794
304,1.6857803256240668443182250942271
305,1.6864417980290076644004352066719
306,1.6871011069383723261797303315719
307,1.6877582664905759653212679843963
308,1.6884132906861885139800228674264
309,1.6890661933897245428380402798028
310,1.6897169883314030029766100813844
311,1.6903656891088804625989191304058
312,1.6910123091889553518487119610437
313,1.6916568619092446085882960072985
314,1.6922993604798345295270831571577
315,1.6929398179849051464632841761519
316,1.6935782473843295034013918302198
317,1.6942146615152453732739445042071
318,1.6948490730936047656380385855742
319,1.6954814947156983670364235847020
320,1.6961119388596549154106245363063
321,1.6967404178869194276326975742943
322,1.6973669440437063947214509523869
323,1.6979915294624314589178684558246
324,1.6986141861631205498994826586831
325,1.6992349260547982422550954576335
326,1.6998537609368535715909604967704
327,1.7004707025003861301698811101951
328,1.7010857623295296314266817611761
329,1.7016989519027579183708150789619
330,1.7023102825941698476951710025725
331,1.7029197656747544883246242749404
332,1.7035274123136376957882728044573
333,1.7041332335793104411148274406603
334,1.7047372404408370784211655931016
335,1.7053394437690478662786619917405
336,1.7059398543377118010603887536843
337,1.7065384828246926346717514274770
338,1.7071353398130891356766032409009
339,1.7077304357923556584865161053278
340,1.7083237811594091121203379554582
341,1.7089153862197180422802665016952
342,1.7095052611883763240659982283961
343,1.7100934161911611032909057685072
344,1.7106798612655749802871460769598
345,1.7112646063618742557164333305727
346,1.7118476613440807133670512419712
347,1.7124290359909805054859824889283
348,1.7130087399971069525633646922635
349,1.7135867829737108026922164937889
350,1.7141631744497154930447825249652
351,1.7147379238726595012748962962221
352,1.7153110406096254694218044016835
353,1.7158825339481553849075169200028
354,1.7164524130971532333230737002678
355,1.7170206871877754885096274318920
356,1.7175873652743076499516213863574
357,1.7181524563350300667599961520666
358,1.7187159692730722924874988272761
359,1.7192779129172517161660578161262
360,1.7198382960229054077366799762995
361,1.7203971272727069230009239267910
362,1.7209544152774745499570868023326
363,1.7215101685769655924044977261094
364,1.7220643956406617150829453842000
365,1.7226171048685435869975449416202
366,1.7231683045918537008825002484966
367,1.7237180030738502611067736035352
368,1.7242662085105489290503075627320
369,1.7248129290314570587993244048519
370,1.7253581727002961366452659510431
371,1.7259019475157152780159399660917
372,1.7264442614119947386393704928311
373,1.7269851222597394069851604282800
374,1.7275245378665665868020944991463
375,1.7280625159777787616599825514396
376,1.7285990642770327980655828096384
377,1.7291341903869973767186086410477
378,1.7296679018700018196815615881657
379,1.7302002062286781536386556325578
380,1.7307311109065931663842404441702
381,1.7312606232888733323646454699337
382,1.7317887507028197258364257541897
383,1.7323155004185175967024989255344
384,1.7328408796494355731372683463427
385,1.7333648955530181126734522722944
386,1.7338875552312718608258157129186
387,1.7344088657313416670225172343835
388,1.7349288340460801950859679598278
389,1.7354474671146118033935874135022
390,1.7359647718228878842866447819654
391,1.7364807550042339801333005222717
392,1.7369954234398922848951965818188
393,1.7375087838595570051751439406697
394,1.7380208429419011623315795576512
395,1.7385316073150976930401216222281
396,1.7390410835573344996829283928436
397,1.7395492781973230809989352500277
398,1.7400561977148007516659601890856
399,1.7405618485410250171501629401069
400,1.7410662370592644043415573748726
401,1.7415693696052817974619804431201
402,1.7420712524678110250439590263277
403,1.7425718918890295193150731372137
404,1.7430712940650249416796941450187
405,1.7435694651462532403670666213208
406,1.7440664112379942499075169037238
407,1.7445621384008019498026097560514
408,1.7450566526509468862439023159821
409,1.7455499599608536186264050827536
410,1.7460420662595357060268900497166
411,1.7465329774330224943599460043792
412,1.7470226993247812875234076614282
413,1.7475112377361359823225162322257
414,1.7479985984266785917645928272970
415,1.7484847871146779414548467258921
416,1.7489698094774819695000065123177
417,1.7494536711519164792119212128155
418,1.7499363777346775086552912498344
419,1.7504179347827215963887313408665
420,1.7508983478136489261687048794013
421,1.7513776223060833036710603610142
422,1.7518557637000482477193118533912
423,1.7523327773973370330702591204590
424,1.7528086687618802994064702283673
425,1.7532834431201076068454085687129
426,1.7537571057613065457742992208784
427,1.7542296619379768866306506265804
428,1.7547011168661797843272307829912
429,1.7551714757258859507437101642060
430,1.7556407436613156584499141269283
431,1.7561089257812780803914077480347
432,1.7565760271595071161616762140508
433,1.7570420528349890438832138160012
434,1.7575070078122930967905244059206
435,1.7579708970618927893696089787785
436,1.7584337255204858952532095801021
437,1.7588954980913112394709551003379
438,1.7593562196444612883866763482343
439,1.7598158950171912199129977084996
440,1.7602745290142255465405224712184
441,1.7607321264080594523814116209429
442,1.7611886919392584092590609168466
443,1.7616442303167557209475672726563
444,1.7620987462181426163809202021119
445,1.7625522442899602239700274692304
446,1.7630047291479844528842049570663
447,1.7634562053775109520229352599040
448,1.7639066775336333664566041528460
449,1.7643561501415227334669319236711
450,1.7648046276967001722846331787591
451,1.7652521146653103723208481014840
452,1.7656986154843887229763692601839
453,1.7661441345621278298841380226443
454,1.7665886762781398083527226861985
455,1.7670322449837179797531451628645
456,1.7674748450020932697558488672095
457,1.7679164806286900060838408016344
458,1.7683571561313775136809700976503
459,1.7687968757507200232731653381123
460,1.7692356437002245377692827660985
461,1.7696734641665845083769106860746
462,1.7701103413099225356922158182843
463,1.7705462792640307017942394123552
464,1.7709812821366066965649713478748
465,1.7714153540094897093432118115785
466,1.7718484989388932190416799020989
467,1.7722807209556339657344747047437
468,1.7727120240653621219116482839033
469,1.7731424122487851427122684382376
470,1.7735718894618928223627275040393
471,1.7740004596361778266780210725321
472,1.7744281266788560020556135314855
473,1.7748548944730818147570535392108
474,1.7752807668781664274371421180639
475,1.7757057477297873387133332639361
476,1.7761298408402021026998334630320
477,1.7765530499984564646992047397912
478,1.7769753789705915923212686181955
479,1.7773968314998492947739217546794
480,1.7778174113068756283607718850878
481,1.7782371220899214425970258248751
482,1.7786559675250434393654263384253
483,1.7790739512663011288338869012159
484,1.7794910769459525057110340442059
485,1.7799073481746499266462100314650
486,1.7803227685416307775834874956320
487,1.7807373416149097839975131243177
488,1.7811510709414675647298919163136
489,1.7815639600474386618872404913494
490,1.7819760124382969143138350361205
491,1.7823872315990403134329090354186
492,1.7827976209943739342707466132857
493,1.7832071840688909214332679863104
494,1.7836159242472526289569347052510
495,1.7840238449343661115517956617495
496,1.7844309495155622168144141891162
497,1.7848372413567699692328654451058
498,1.7852427238046911966774308118761
499,1.7856474001869729023030332676149
500,1.786051273812379518078786283834
501,1.786454347970960791876378064218
502,1.786856625934222769342145350901
503,1.787258110955293344903013300438
504,1.787658806269090232137116440477
505,1.788058715092484207551263206969
506,1.788457840624463364616592960228
507,1.788856186046296233041610184951
508,1.789253754521693410403152803775
509,1.789650549196965944378892348557
510,1.790046573201186526395882800801
511,1.790441829646346735563903705831
512,1.790836321627514241113226124174
513,1.791230052222988587329615951853
514,1.791623024494456245960224602603
515,1.792015241487145319144693175454
516,1.792406706229978112278330651204
517,1.792797421735722660899808916318
518,1.793187391001145006602363117890
519,1.793576617007159013837586041622
520,1.793965102718976594822582598618
521,1.794352851086255148303966535993
522,1.794739865043246499223152165564
523,1.795126147508943787613463455893
