Eigenstate,Potential Energy
1,0.500000000013911140618931628191393085
2,0.64623093774191928217579017527099886
3,0.73633760997170678215020161304146423
4,0.79966527836980884187512938869859579
5,0.8480465762480458301450746446426355
6,0.8870659983594217785476617071667692
7,0.9197208261413283485045640127499071
8,0.9477838459703055332682736204290627
9,0.9723835568524003651433209767049935
10,0.9942802129360402359555766584903787
11,1.0140093843621669479067504192549690
12,1.0319621664353402853963685398406210
13,1.0484326892213145375908027158815337
14,1.0636476504031912354021182709275423
15,1.0777854310955987325641256930661276
16,1.090988900715134006171294887051805
17,1.103374250441864967903834128966562
18,1.115037244225528656998385461930545
19,1.126057741889508050501297117536785
20,1.136503036764767981855946947739588
21,1.146430361771551971076867540092394
22,1.155888800578122121273278163122740
23,1.164920765537283609584268001639056
24,1.173563155086806730341313313392326
25,1.181848270545353203675903163552492
26,1.189804549920063866159319650485045
27,1.197457160869134462672984942516717
28,1.204828484060855452147226711807710
29,1.211938510375563920061392461133972
30,1.218805169747468122528779964704809
31,1.225444605297366687582918931872704
32,1.231871403329384915187691741821517
33,1.238098787455202813830956563530998
34,1.244138783358703245760336355541551
35,1.250002359374773487497441577905548
36,1.255699547022514633937778788623318
37,1.261239544829028726003731335150241
38,1.266630808149534738818772391219736
39,1.271881127191715917967033321932896
40,1.276997695056380167948748457466639
41,1.281987167289764923295154923475610
42,1.286855714187825331361115984242019
43,1.291609066886358230946540408520035
44,1.296252558102720395434008750784544
45,1.300791158257329940166502568695808
46,1.305229507590003511223604321822490
47,1.309571944792705260446452697972760
48,1.313822532602697247333178710037983
49,1.317985080735418364546478081770031
50,1.32206316648229617013548667087680
51,1.32606015325322904711318850249098
52,1.32997920730513089674092761839945
53,1.33382331286548045333378071111606
54,1.33759528583225617695133179781214
55,1.34129778620816218783243681562055
56,1.34493332940697613631239651422909
57,1.34850429655265093684622473111285
58,1.35201294387700510847438008286901
59,1.35546141130908251679536037354873
60,1.35885173033823780480995143065415
61,1.36218583122343957249969449325961
62,1.36546554961298235989064711598576
63,1.36869263263155659933471295520562
64,1.37186874448531322282022433705104
65,1.37499547163002477015189823038174
66,1.37807432754259750478739529461647
67,1.38110675713192675279282683587961
68,1.38409414082133151957188088968001
69,1.38703779833149176829713723135022
70,1.38993899218988347570886263427183
71,1.39279893099010787721583893313966
72,1.39561877242221307085360259832440
73,1.39839962609305314325225093187401
74,1.40114255615391113221365556932113
75,1.40384858375098103939516758641594
76,1.40651868931285454984194855001568
77,1.40915381468785571669216648805826
78,1.41175486514290107119929247526415
79,1.41432271123451579822365630451768
80,1.41685819056169849170114229851633
81,1.41936210940947766312037905517082
82,1.42183524429124172548638512348340
83,1.42427834339723544145907188718413
84,1.42669212795599153263893097249691
85,1.42907729351490687079860360472147
86,1.43143451114565680646980375637573
87,1.43376442857968371949519254442024
88,1.43606767127857249841918130555581
89,1.43834484344374215343016566461148
90,1.44059652896953955083743370197691
91,1.44282329234349980501533394910637
92,1.44502567949724956620817992181969
93,1.44720421861126718753375617461044
94,1.44935942087647082578520371059764
95,1.45149178121538437660205476346176
96,1.45360177896542932246480469627367
97,1.45568987852670622985775107973110
98,1.45775652997645675765022533038267
99,1.45980216965224356655710834260360
100,1.46182722070573917912357432587841
101,1.46383209362888553552444069046192
102,1.46581718675406041574748435648275
103,1.46778288672977898511720059720351
104,1.46972956897335145540502709424149
105,1.47165759810182478001523430333599
106,1.47356732834244553749191323422168
107,1.47545910392380307563710440152676
108,1.47733325944873274897573527185269
109,1.47919012024999048876884820807004
110,1.48103000272964752465157263106190
111,1.48285321468308821577375395721313
112,1.48466005560844451568767491028225
113,1.48645081700224505943326003953956
114,1.48822578264200810351478003024271
115,1.48998522885646710096051506137423
116,1.49172942478406936200862893212797
117,1.49345863262035653795571998090147
118,1.49517310785479463459894947332553
119,1.49687309949758754798637498317790
120,1.49855885029698227295509567336627
121,1.50023059694753566769261989431661
122,1.50188857028979374442406116486422
123,1.50353299550180226339578360319177
124,1.50516409228284972751745027103835
125,1.50678207502981430876131059496060
126,1.50838715300647104012002300991714
127,1.50997953050609502903790101125411
128,1.51155940700767386104057337222433
129,1.51312697732603028904996521609861
130,1.51468243175613792200421502671951
131,1.51622595621189722228408058152680
132,1.51775773235962414424656440950530
133,1.51927793774649196458261043657856
134,1.52078674592415557925673652701506
135,1.52228432656776943344408172007688
136,1.52377084559060656334998826394561
137,1.52524646525447292085354754922008
138,1.52671134427609753992605566695670
139,1.52816563792967699786964172762400
140,1.52960949814573717845306776339085
141,1.53104307360647078653179310004255
142,1.53246650983770099047221852261772
143,1.53387994929761291853085039703097
144,1.53528353146238755570201755495712
145,1.53667739290886839978880735231625
146,1.53806166739438336670084042721453
147,1.53943648593383623201656748278860
148,1.54080197687418293781444876421303
149,1.54215826596639456570300244144352
150,1.54350547643501061690264769058713
151,1.54484372904537851360834553266101
152,1.54617314216866962077751548694916
153,1.54749383184476073801095052418495
154,1.54880591184306496074254740448503
155,1.55010949372139014670375829533447
156,1.55140468688290285399871982817394
157,1.55269159863126879736594746897248
158,1.55397033422404164069997164904154
159,1.5552409969243637986383182362507
160,1.5565036880510455847235391837899
161,1.5577585070270812022311953650575
162,1.5590055514266610387351028442740
163,1.5602449170207351176792049281114
164,1.5614766978211823435208981415216
165,1.5627009861236341406334223467276
166,1.5639178725490030015260190460278
167,1.5651274460837631766711751517457
168,1.5663297941190261948223915333834
169,1.5675250024884562758829904825979
170,1.5687131555050653794115125323528
171,1.5698943359969280831944154932259
172,1.5710686253418541585138049688336
173,1.5722361035010542444108394875525
174,1.5733968490518344644286128729445
175,1.5745509392193539707373137956942
176,1.5756984499074751219642884230313
177,1.5768394557287395552362249424206
178,1.5779740300334993067994044614315
179,1.5791022449382294261335353572678
180,1.5802241713530530299277614216907
181,1.5813398790085014444746511053547
182,1.5824494364815371318371728618647
183,1.5835529112208624490321237570738
184,1.5846503695715384817355797442455
185,1.5857418767989357606030986906025
186,1.5868274971120378287933972824600
187,1.5879072936861214611620757993857
188,1.5889813286848289714089786467882
189,1.5900496632816563382358145427845
190,1.5911123576808728015575883548055
191,1.5921694711378911512851486335580
192,1.5932210619791050908466142223585
193,1.5942671876212119792598171837658
194,1.5953079045900342925019382235225
195,1.5963432685388577364980502121938
196,1.5973733342662997035909328279486
197,1.5983981557337224477750199148131
198,1.5994177860822051406353183752700
199,1.6004322776490876418063760406602
200,1.6014416819840999241119651695538
201,1.6024460498650881297638823061005
202,1.6034454313133506337308128025456
203,1.6044398756085947689589163515291
204,1.6054294313035258283052365072114
205,1.6064141462380783084956187681981
206,1.6073940675533024148035848042745
207,1.6083692417049116970753219942754
208,1.6093397144765060385049600695717
209,1.6103055309924757399873371307464
210,1.6112667357305981956468917963744
211,1.6122233725343345184986248515494
212,1.6131754846248363433628699560470
213,1.6141231146126671849212874577066
214,1.6150663045092533265972804815498
215,1.6160050957380634464849911164118
216,1.6169395291455309347769873346986
217,1.6178696450117228617255743854602
218,1.6187954830607645685801876212919
219,1.6197170824710231544292449553164
220,1.6206344818850623670665974557311
221,1.6215477194193668001646449384692
222,1.6224568326738525941116944820466
223,1.6233618587411582013367729074570
224,1.6242628342157302754119892748783
225,1.6251597952027072404667406168789
226,1.6260527773266040788463354588181
227,1.6269418157398069798530946474013
228,1.6278269451308796597608076589579
229,1.6287081997326885052373666456425
230,1.6295856133303512264034371428633
231,1.6304592192690108087810495405813
232,1.6313290504614451730362028454790
233,1.6321951393955075280030794550429
234,1.6330575181414135630387774680390
235,1.6339162183588686507914737137251
236,1.6347712713040447591329235363787
237,1.6356227078364106923647092276754
238,1.6364705584254173926913676398643
239,1.6373148531570437375219902322846
240,1.6381556217402049859984292463078
241,1.6389928935130281560793116730284
242,1.6398266974489971881103120810826
243,1.6406570621629719256334242028920
244,1.6414840159170826016509119976295
245,1.6423075866265042034336880366325
246,1.6431278018651132344205005564453
247,1.6439446888710282549720348039147
248,1.6447582745520417825124102511026
249,1.6455685854909385195517673712957
250,1.6463756479507102936887153341111
251,1.6471794878796656089975238903802
252,1.6479801309164366066929811615903
253,1.6487776023948885066689550719136
254,1.6495719273489311861604798301140
255,1.6503631305172367749517802106493
256,1.6511512363478633518896420100601
257,1.6519362690027911334393668263647
258,1.6527182523623675983347637436366
259,1.6534972100296683511653739129338
260,1.6542731653347741105979725295764
261,1.6550461413389641352822216243623
262,1.6558161608388308121650633760328
263,1.6565832463703142570932648867364
264,1.6573474202126623778545791841204
265,1.6581087043923149241823653881183
266,1.6588671206867136917533434921190
267,1.6596226906280420927077018020468
268,1.6603754355068941256877069360255
269,1.6611253763758770145910814457019
270,1.6618725340531432394603944329633
271,1.6626169291258612427417646545876
272,1.6633585819536187897538393341784
273,1.6640975126717664257580622340729
274,1.6648337411946982379243209910028
275,1.6655672872190737970478237002343
276,1.6662981702269795566457690362625
277,1.6670264094890371927239948396593
278,1.6677520240674506381372286075604
279,1.6684750328190033139875729225266
280,1.6691954543979976509067817796371
281,1.6699133072591447890254336137709
282,1.6706286096604019528769842471461
283,1.6713413796657607136629070321165
284,1.6720516351479832953939648646354
285,1.6727593937912937321476651430389
286,1.6734646730940199011672068685277
287,1.6741674903711914910725530204501
288,1.6748678627570903069393070279906
289,1.6755658072077575602893515006891
290,1.6762613405034588764999719238335
291,1.6769544792511048605515411658437
292,1.6776452398866301059996899582239
293,1.6783336386773345529263048418392
294,1.6790196917241822317631274868809
295,1.6797034149640594801127470483856
296,1.6803848241720002181060929999500
297,1.6810639349633682140007509844453
298,1.6817407627960056567508817938379
299,1.6824153229723448383833435630072
300,1.6830876306414846967624030642492
301,1.6837577008012326301577545932775
302,1.6844255483001136765250892104131
303,1.6850911878393442306048059511465
304,1.6857546339747738763447362480345
305,1.6864159011187967631498499365150
306,1.6870750035422317891553736397938
307,1.6877319553761687734730487061824
308,1.6883867706137880958355843560118
309,1.6890394631121498929010861705730
310,1.6896900465939531463604093137426
311,1.6903385346492682577466036951470
312,1.6909849407372406230750675606455
313,1.6916292781877666000600182364585
314,1.6922715602031436721769905880742
315,1.6929117998596941292107494571487
316,1.6935500101093636399271356902686
317,1.6941862037812922554700595769867
318,1.6948203935833631947250563470769
319,1.6954525921037265532076062140724
320,1.6960828118122979367310344759971
321,1.6967110650622359387845300253218
322,1.6973373640913945760484158471538
323,1.6979617210237541960824531780914
324,1.6985841478708298343228206483863
325,1.6992046565330587823651607664317
326,1.6998232588011656047563698777135
327,1.7004399663575074250470768792205
328,1.7010547907773966702953722928641
329,1.7016677435304062488767268175408
330,1.7022788359816535932621246813585
331,1.7028880793930650063368096357424
332,1.7034954849246213724797333783192
333,1.7041010636355856119372369529551
334,1.7047048264857100624925885647751
335,1.7053067843364281033420127310000
336,1.7059069479520260792069734871906
337,1.7065053280007983969063437089462
338,1.7071019350561868532187826783063
339,1.7076967795979002585199367527422
340,1.7082898720130204475126629518525
341,1.7088812225970903906057252502183
342,1.7094708415551869030681476045349
343,1.7100587390029775897261659037728
344,1.7106449249677620188874808594001
345,1.7112294093894989448048036485243
346,1.7118122021218170534511047959616
347,1.7123933129330127969429548573676
348,1.7129727515070321283134097365542
349,1.7135505274444396815369047958064
350,1.7141266502633729391240408299513
351,1.7147011294004834748681486107997
352,1.7152739742118649540864245451481
353,1.7158451939739671757117251770437
354,1.7164147978844975706898131452054
355,1.7169827950633105219439706349042
356,1.7175491945532827156740805009491
357,1.7181140053211777630136542622811
358,1.7186772362584993360306775777673
359,1.7192388961823285631962339646648
360,1.7197989938361546222256986411615
361,1.7203575378906902751468413468598
362,1.7209145369446788271810312400194
363,1.7214699995256871050367117965990
364,1.7220239340908894785955544309211
365,1.7225763490278411623450513412183
366,1.7231272526552396742142897234191
367,1.7236766532236773438105378348842
368,1.7242245589163816587730871055966
369,1.7247709778499480817777265253889
370,1.7253159180750610513551635803044
371,1.7258593875772060198208826758011
372,1.7264013942773714847841296035949
373,1.7269419460327409809403139885422
374,1.7274810506373793406151695896107
375,1.7280187158229039146193057807517
376,1.7285549492591522096178125189903
377,1.7290897585548377312143787815196
378,1.7296231512581972001505755566716
379,1.7301551348576309814109677856406
380,1.7306857167823334829877539201241
381,1.7312149044029163997296819699379
382,1.7317427050320219204342906843394
383,1.7322691259249305728334472132586
384,1.7327941742801586701619409270963
385,1.7333178572400489805521139547646
386,1.7338401818913552778952376879091
387,1.7343611552658165234933801701982
388,1.7348807843407246152869157163848
389,1.7353990760394863793295371175927
390,1.7359160372321769926019415071614
391,1.7364316747360851540897112627654
392,1.7369459953162536124863950793889
393,1.7374590056860125239918651223058
394,1.7379707125075042212861532812802
395,1.7384811223922022505340496953516
396,1.7389902419014243272707426254318
397,1.7394980775468388410583587213666
398,1.7400046357909649170301682967061
399,1.7405099230476646000949632621930
400,1.7410139456826314617410639824669
401,1.7415167100138716783408077493354
402,1.7420182223121783261532225356102
403,1.7425184888016017137458174561266
404,1.7430175156599136449060026993500
405,1.7435153090190630774682607944955
406,1.7440118749656292870723046413343
407,1.7445072195412696525527113171244
408,1.7450013487431595661348082753026
409,1.7454942685244273294939049387805
410,1.7459859847945865501368327360276
411,1.7464765034199602981036380718831
412,1.7469658302241006055593066127335
413,1.7474539709882043883146754740567
414,1.7479409314515222131024738556772
415,1.7484267173117641945507120388355
416,1.7489113342254994514665566468029
417,1.7493947878085519708972937449081
418,1.7498770836363900431844943259083
419,1.7503582272445135465028461757496
420,1.7508382241288340627854320964727
421,1.7513170797460517771986871103720
422,1.7517947995140284427492026332205
423,1.7522713888121542461417589163391
424,1.7527468529817121885926608817180
425,1.7532211973262363609373043107432
426,1.7536944271118677198506551082441
427,1.7541665475677048497889943423877
428,1.7546375638861497243186653406829
429,1.7551074812232523791970334373534
430,1.7555763046990473592890021294031
431,1.7560440393978894429498282050882
432,1.7565106903687857933653273028959
433,1.7569762626257198747224442646857
434,1.7574407611479782311230172817061
435,1.7579041908804679518904422821561
436,1.7583665567340327242339151086947
437,1.7588278635857656346146269383051
438,1.7592881162793177008518156502516
439,1.7597473196252028162465392138708
440,1.7602054784011001769095356424547
441,1.7606625973521513521185443571929
442,1.7611186811912555613233626657462
443,1.7615737345993628054654835033960
444,1.7620277622257594719546883996700
445,1.7624807686883557439313444377630
446,1.7629327585739658381340865908210
447,1.7633837364385882405110929771456
448,1.7638337068076791577448580182512
449,1.7642826741764270251645377251695
450,1.7647306430100202234544331988650
451,1.7651776177439155072207654311693
452,1.7656236027840999867320820574805
453,1.7660686025073524058716782433405
454,1.7665126212615001052169726345565
455,1.7669556633656752940840836131392
456,1.7673977331105659285016640463396
457,1.7678388347586658907857873133203
458,1.7682789725445208665766474948635
459,1.7687181506749724332259165877809
460,1.7691563733294000018406092618430
461,1.7695936446599584626717310346242
462,1.7700299687918147468601706623729
463,1.7704653498233819082730240263532
464,1.7708997918265488862978403608684
465,1.7713332988469099182912593328409
466,1.7717658749039907323398621194704
467,1.7721975239914708008096176431432
468,1.7726282500774066702845069399619
469,1.7730580571044488445508430374896
470,1.7734869489900597451265168387552
471,1.7739149296267270164008585981203
472,1.7743420028821764729544875057317
473,1.7747681725995800399193262188879
474,1.7751934425977661903291628293651
475,1.7756178166714218021721067310116
476,1.7760412985912979489061508579558
477,1.7764638921044099563892863880036
478,1.7768856009342364021670763372552
479,1.7773064287809159464554968876489
480,1.7777263793214423893529629145270
481,1.7781454562098565051084590570011
482,1.7785636630774382221842043253096
483,1.7789810035328945290601125865845
484,1.7793974811625459254845114585204
485,1.7798130995305128959955939731402
486,1.7802278621788969904547533384482
487,1.7806417726279633603202030196477
488,1.7810548343763193470933889491441
489,1.7814670509010923509822624531297
490,1.7818784256581048427696238522280
491,1.7822889620820486530293611222066
492,1.7826986635866571267352836444195
493,1.7831075335648751181271869602800
494,1.7835155753890279197268904056360
495,1.7839227924109873178509461446718
496,1.7843291879623380188892018701640
497,1.7847347653545401317157500297505
498,1.7851395278790916513287966483895
499,1.7855434788076884408809487667983
500,1.785946621392383842409939572553
501,1.786348958865743662115279667974
502,1.786750494441003985165941987279
503,1.787151231312223287964974059964
504,1.787551172654436691504705198927
505,1.787950321623805203070286917046
506,1.788348681357765676167140268662
507,1.788746254975179336483554401872
508,1.789143045576478513627904045692
509,1.789539056243809809306579310364
510,1.789934290041179754952216454096
511,1.790328750014596189647943319450
512,1.790722439192209258311620954623
513,1.791115360584450645643333098602
514,1.791507517184171722065327386577
515,1.791898911966780975718684668271
516,1.792289547890378940671162168702
517,1.792679427895891695893135035874
518,1.793068554907204720205166663015
519,1.793456931831293884959170682865
520,1.793844561558356441275028763425
521,1.794231446961938796879357511770
522,1.794617590899065358565611283254
523,1.795002996210364877251762553992
