Eigenstate,Potential Energy
1,0.500000000016419109679135677373218237
2,0.64623093775828997199575122457061152
3,0.73633761001979424757797601140560976
4,0.79966527846996921349519602790455364
5,0.8480465764215433662520756492849907
6,0.8870659986278924279161821229003875
7,0.9197208265265819860549531374164310
8,0.9477838464942433804227790245332173
9,0.9723835575369764949181166968833224
10,0.9942802138032419473014045765651065
11,1.0140093854340040227722225864606406
12,1.0319621677338387722367275748260919
13,1.0484326907685129990366082352113553
14,1.0636476522211384140025883995315205
15,1.0777854332063520719754292701859339
16,1.090988903140758709641347952466433
17,1.103374253204433406210598636563531
18,1.115037247347120010690178523210390
19,1.126057745392208113487883635930966
20,1.136503040670669078772983868292801
21,1.146430366102752956584631698254258
22,1.155888805356728439486894527163499
23,1.164920770785407398393807632648491
24,1.173563160826566959766565388571801
25,1.181848276798875840393226470471544
26,1.189804556709482058417619015603080
27,1.197457168216588741285574900114147
28,1.204828491988493944301146656185657
29,1.211938518905542573453552699291102
30,1.218805178901950937904574895774776
31,1.225444615098525958175625447120882
32,1.231871413799401471876029264712296
33,1.238098798616266275075544972961000
34,1.244138795233012271567216300224116
35,1.250002371984536036802483256183611
36,1.255699560389948224919971092260521
37,1.261239558976360698925539802690317
38,1.266630823099002521063541735227288
39,1.271881142965567291000951656177181
40,1.276997711676873535981319359269649
41,1.281987184779169583449818794584297
42,1.286855732568421745198446764949027
43,1.291609086180438297207734790308863
44,1.296252578332587723893256453549237
45,1.300791179445300126498153965357405
46,1.305229529758404412804500612818381
47,1.309571967963877273025881502182463
48,1.313822556798993582513101617367111
49,1.317985105979205328023275194429791
50,1.32206319279595344066176176770212
51,1.32606018065914995614438664082505
52,1.32997923582572270873682929775783
53,1.33382334252316464668948364745392
54,1.33759531664946872553625348447901
55,1.34129781820735384311924822325988
56,1.34493336261061271008072919237957
57,1.34850433098321358444853198789262
58,1.35201297955699061265355571238762
59,1.35546144826100357204564840043035
60,1.35885176858462330227437900402867
61,1.36218587078683488539874475494416
62,1.36546559051594962947821476560214
63,1.36869267489667502137852657289957
64,1.37186878813517933460495333536051
65,1.37499551668725273800407763037972
66,1.37807437402981941212209984332202
67,1.38110680507179288868275597572285
68,1.38409419023651066784015646743965
69,1.38703784924467149713570188507960
70,1.38993904462377042782487097584148
71,1.39279898496742806050891962519853
72,1.39561882796571214962727084060725
73,1.39839968322549672996314860623697
74,1.40114261489808507976262948333551
75,1.40384864412969173396452031400534
76,1.40651875134892920428347019619445
77,1.40915387840414266447082213995420
78,1.41175493056227006089768360727612
79,1.41432277837985828861257891055548
80,1.41685825945592794738177821109309
81,1.41936218007552985074383047954589
82,1.42183531675207501055644907081484
83,1.42427841767583108572429213983398
84,1.42669220407535399208011438146593
85,1.42907737149806409421813439872942
86,1.43143459101566053468920424964338
87,1.43376451035960978516750756950441
88,1.43606775499152112646286937849982
89,1.43834492911283826209128272508124
90,1.44059661661793305338699805842662
91,1.44282338199436591208885306536486
92,1.44502577117378908879440525653241
93,1.44720431233670684061982365876995
94,1.44935951667406353266538158835535
95,1.45149187910840957385741845593326
96,1.45360187897719326562120484885109
97,1.45568998068054229972954271887783
98,1.45775663429572576737725691028522
99,1.45980227616033406934256663421808
100,1.46182732942606777668032120390949
101,1.46383220458489718723755134524510
102,1.46581729996922874856075012583475
103,1.46778300222760660415140916461272
104,1.46972968677737025531591200278961
105,1.47165771823559625709901060613697
106,1.47356745082956110254638822286847
107,1.47545922878788436758640240540394
108,1.47733338671343194926671898246082
109,1.47919024993899063654737788987404
110,1.48103013486666283272678735685171
111,1.48285334929186438737860945454729
112,1.48466019271275906204403622690952
113,1.48645095662590761812986170702982
114,1.48822592480886075770644948776503
115,1.48998537359038469939708282753681
116,1.49172957210895983990199674424437
117,1.49345878256016123869360779905817
118,1.49517326043348863231389577599750
119,1.49687325473917997098859619275889
120,1.49855900822551662803786649939272
121,1.50023075758709016531887900924522
122,1.50188873366448162480300243069285
123,1.50353316163577212345822229722278
124,1.50516426120028584879880327307011
125,1.50678224675493698620109480436735
126,1.50838732756353691178679610431625
127,1.50997970791939740678863207380898
128,1.51155958730154306212347047365035
129,1.51312716052483396865983393984048
130,1.51468261788428140679947160846347
131,1.51622614529382384487458495008910
132,1.51775792441981557866149923279827
133,1.51927813280946856272765210746637
134,1.52078694401447670836984273637652
135,1.52228452771003381455925319395181
136,1.52377104980945261077839976174795
137,1.52524667257457908269151728112472
138,1.52671155472218263959934708252760
139,1.52816585152650057672365429692839
140,1.52960971491809983939852256387382
141,1.53104329357921453875555592612831
142,1.53246673303570959522296832466232
143,1.53388017574581223598934845271862
144,1.53528376118574589294577526342676
145,1.53667762593239685986100293721459
146,1.53806190374313619879340052910008
147,1.53943672563291118277736843276209
148,1.54080221994872160378863744357741
149,1.54215851244158274691851830131681
150,1.54350572633607867161004166610786
151,1.54484398239760171418508230412406
152,1.54617339899736851080697556611101
153,1.54749409217530149054641223273124
154,1.54880617570085973776647715343942
155,1.55010976113189745979280496822044
156,1.55140495787162792620485444787415
157,1.55269187322376392632424936639552
158,1.55397061244590656297362456655751
159,1.5552412788012460553114302009805
160,1.5565039736086408882524536663782
161,1.5577587962911338045650121150566
162,1.5590058444229641007162498764747
163,1.5602452137751310797348600064700
164,1.5614769983595632976561818796759
165,1.5627012904719422037373582361545
166,1.5639181807332306900012550873136
167,1.5651277581299537823985962488940
168,1.5663301100532741624717527670990
169,1.5675253223369075815807954701577
170,1.5687134792939179107774311264324
171,1.5698946637524320207575625263245
172,1.5710689570903123585203115318979
173,1.5722364392688226230341830969091
174,1.5733971888653223833942409235660
175,1.5745512831050246243731730785915
176,1.5756987978918459256889315632050
177,1.5768398078383825354962317625407
178,1.5779743862950414924679420679016
179,1.5791026053783532413818934376476
180,1.5802245359984966885818614485085
181,1.5813402478860593458685136384512
182,1.5824498096180602581754154371746
183,1.5835532886432587642736875021160
184,1.5846507513067733320108820703740
185,1.5857422628740322761769207384228
186,1.5868278875540773275858879366059
187,1.5879076885222438538403094376674
188,1.5889817279422331680615924348042
189,1.5900500669876006566433207787840
190,1.5911127658626753770710398500292
191,1.5921698838229303483259041508621
192,1.5932214791948199160400275214575
193,1.5942676093951024962157475056441
194,1.5953083309496620382550806300544
195,1.5963436995118461396211429890817
196,1.5973737698803345039939613247331
197,1.5983985960165521182036692452100
198,1.5994182310616413098819573791552
199,1.6004327273530055196469700199680
200,1.6014421364404387279823822890800
201,1.6024465091018515131891271544710
202,1.6034458953586071165208574195234
203,1.6044403444904781691848195509561
204,1.6054299050502356960693842387550
205,1.6064146248778803615099415753817
206,1.6073945511145289757897750503710
207,1.6083697302159621330010851965323
208,1.6093402079658472016704812534060
209,1.6103060294886424109762022930359
210,1.6112672392621935281557847716259
211,1.6122238811300304860602718657063
212,1.6131759983133741879767074789095
213,1.6141236334228578676064879857987
214,1.6150668284699779798828516113909
215,1.6160056248782738288517386943902
216,1.6169400634942498870662428071742
217,1.6178701845980447655296900216832
218,1.6187960279138558066298781577751
219,1.6197176326201225729929787183415
220,1.6206350373594817403773272107729
221,1.6215482802484912968892546631460
222,1.6224573988871412458786560173428
223,1.6233624303681443733376229259589
224,1.6242634112860221390922857803889
225,1.6251603777459882483223370902441
226,1.6260533653726334413408417382812
227,1.6269424093184201444725541941501
228,1.6278275442719887922216942536517
229,1.6287088044662829728641307137726
230,1.6295862236864980836919205422915
231,1.6304598352778552851642209448179
232,1.6313296721532111628687482103391
233,1.6321957668004980827815204318974
234,1.6330581512900113858738971876759
235,1.6339168572815365931499075676331
236,1.6347719160313263198649513299534
237,1.6356233583989305190353338527068
238,1.6364712148538817852319273488302
239,1.6373155154822411542196471592433
240,1.6381562899930065518410227542860
241,1.6389935677243881734731362339949
242,1.6398273776499536499885367216235
243,1.6406577483846470309729929567609
244,1.6414847081906832734158569905821
245,1.6423082849833226089629509389592
246,1.6431285063365273082784571290586
247,1.6439453994885022242800463900708
248,1.6447589913471266947798602115307
249,1.6455693084952727730251526083756
250,1.6463763771960201702375215044055
251,1.6471802233977658095557356429802
252,1.6479808727392307892751692368732
253,1.6487783505543698269800530236910
254,1.6495726818771828408185375454778
255,1.6503638914464325473430024355963
256,1.6511520037102681606752811550484
257,1.6519370428307615837340994226500
258,1.6527190326883525355763431729557
259,1.6534979968862094176954753582120
260,1.6542739587545063049743402896634
261,1.6550469413546163743422862630606
262,1.6558169674832264958614354061901
263,1.6565840596763718361215736288481
264,1.6573482402133959240943322158218
265,1.6581095311208347039716066663249
266,1.6588679541762267420180938822339
267,1.6596235309118527999672345933294
268,1.6603762826184048079569539426956
269,1.6611262303485885062015610690941
270,1.6618733949206554788212102905434
271,1.6626177969218738630624037976469
272,1.6633594567119317127506546889983
273,1.6640983944262804583664429084081
274,1.6648346299794156720387797207250
275,1.6655681830680990123123427721420
276,1.6662990731745196263169109427646
277,1.6670273195694024926295046972285
278,1.6677529413150554587529220587735
279,1.6684759572683664756555795852963
280,1.6691963860837431222183224256233
281,1.6699142462160023083914527815683
282,1.6706295559232076533102484586591
283,1.6713423332694577507952000989314
284,1.6720525961276224787522803011385
285,1.6727603621820341597135072619882
286,1.6734656489311295972431832023375
287,1.6741684736900480474807011290822
288,1.6748688535931815275757660116737
289,1.6755668055966821090601314186829
290,1.6762623464809269286628542333516
291,1.6769554928529387574891936938425
292,1.6776462611487650134494088463176
293,1.6783346676358191226918859864604
294,1.6790207284151792669346248405604
295,1.6797044594238466038200075388822
296,1.6803858764369705458322445779738
297,1.6810649950700310294819215256870
298,1.6817418307809870914886573264603
299,1.6824163988723885547967466815496
300,1.6830887144934525750062612784262
301,1.6837587926421054586346039002953
302,1.6844266481669918461179702049477
303,1.6850922957694484326584760539850
304,1.6857557500054458044230335038644
305,1.6864170252874998185972243039710
306,1.6870761358865517904907792163650
307,1.6877330959338146696445174933671
308,1.6883879194225926833641912341952
309,1.6890406202100705369431428741241
310,1.6896912120190725057168762588063
311,1.6903397084397950138489982678745
312,1.6909861229315102129775732343637
313,1.6916304688242419534673005343248
314,1.6922727593204159525378036194552
315,1.6929130074964834789076070949540
316,1.6935512263045199295923659726605
317,1.6941874285737958374590090423820
318,1.6948216270123256607773095570271
319,1.6954538342083914963275102191419
320,1.6960840626320417173187785593785
321,1.6967123246365684550494935055390
322,1.6973386324599600387367722162563
323,1.6979629982263319075510498009281
324,1.6985854339473349719918321583986
325,1.6992059515235431865821607879106
326,1.6998245627458185711048304580405
327,1.7004412792966565011322520327891
328,1.7010561127515084570413145146649
329,1.7016690745800872063678662388215
330,1.7022801761476508511636293379671
331,1.7028894287162671789278560162501
332,1.7034968434460593783341934235866
333,1.7041024313964334982866864917059
334,1.7047062035272858343066489896475
335,1.7053081707001945571614302520247
336,1.7059083436795916417649759195886
337,1.7065067331339179685743974870919
338,1.7071033496367626563127911366481
339,1.7076982036679826905034526986626
340,1.7082913056148089391340132526325
341,1.7088826657729342690059964094834
342,1.7094722943475862598976208324097
343,1.7100602014545841543067253983605
344,1.7106463971213800364591729492074
345,1.7112308912880860598947306068020
346,1.7118136938084851984034157852281
347,1.7123948144510290856487707679597
348,1.7129742628998197551800869795977
349,1.7135520487555788257360689199488
350,1.7141281815366016741584554503828
351,1.7147026706796986834975428403658
352,1.7152755255411232486529023301739
353,1.7158467553974858239056677908446
354,1.7164163694466554267975040177795
355,1.7169843768086489636185421055101
356,1.7175507865265065862716709955132
357,1.7181156075671563195370321881868
358,1.7186788488222672027230059537379
359,1.7192405191090866908279346131446
360,1.7198006271712712531177369045123
361,1.7203591816797019139740847421843
362,1.7209161912332912175997870744260
363,1.7214716643597762121808642266704
364,1.7220256095165024774859924442413
365,1.7225780350911974322577222629464
366,1.7231289494027317990522584892384
367,1.7236783607018721185259706127234
368,1.7242262771720211018856364073643
369,1.7247727069299504540358711676913
370,1.7253176580265218805876090930331
371,1.7258611384473991320255227519611
372,1.7264031561137500415024538935161
373,1.7269437188829385229655031644110
374,1.7274828345492108380827172143310
375,1.7280205108443668235290471027365
376,1.7285567554384275348370076463796
377,1.7290915759402910960119238067384
378,1.7296249798983799223124120809023
379,1.7301569748012811559877606839084
380,1.7306875680783770717258891800575
381,1.7312167671004683272373298905264
382,1.7317445791803871771345564150625
383,1.7322710115736053247573565515864
384,1.7327960714788313756339814138948
385,1.7333197660386015138220208358803
386,1.7338421023398640597698306518983
387,1.7343630874145536590227730278667
388,1.7348827282401590385600614837662
389,1.7354010317402850054344055790406
390,1.7359180047852058768060150848716
391,1.7364336541924106582972013672085
392,1.7369479867271435790288180430596
393,1.7374610091029374568093709196300
394,1.7379727279821384745572425438492
395,1.7384831499764252248119737389883
396,1.7389922816473216731852991673386
397,1.7395001295067036706424829768357
398,1.7400067000172990227308761749134
399,1.7405119995931796815292051889360
400,1.7410160346002503602570876564299
401,1.7415188113567296194465844622321
402,1.7420203361336241698737126235444
403,1.7425206151551992129715760079783
404,1.7430196545994427117961594130118
405,1.7435174605985210579712609012416
406,1.7440140392392322436286682927566
407,1.7445093965634536550444914386954
408,1.7450035385685819911468462733142
409,1.7454964712079681679528446348951
410,1.7459882003913497233942072181180
411,1.7464787319852749825301028109439
412,1.7469680718135225657174371878590
413,1.7474562256575173187787129055076
414,1.7479431992567390889936684139775
415,1.7484289983091286308576875520378
416,1.7489136284714870712208422128751
417,1.7493970953598717822744854675814
418,1.7498794045499858256024104239320
419,1.7503605615775652457885742375698
420,1.7508405719387591954838298795217
421,1.7513194410905068440956740405272
422,1.7517971744509103516833927431873
423,1.7522737773996017441793482761902
424,1.7527492552781073036404946244646
425,1.7532236133902058528700751515689
426,1.7536968570022845412288810931221
427,1.7541689913436896162449786314839
428,1.7546400216070721946883709249363
429,1.7551099529487329454765604003311
430,1.7555787904889585464950983912097
431,1.7560465393123574189644260450206
432,1.7565132044681918888449938592259
433,1.7569787909707021131543931396596
434,1.7574433037994328691098173820259
435,1.7579067478995510297465988898302
436,1.7583691281821616269781821675494
437,1.7588304495246206634425288296596
438,1.7592907167708436551737955030886
439,1.7597499347316105863779194387730
440,1.7602081081848683474991754594149
441,1.7606652418760278164038902270270
442,1.7611213405182591463006023272772
443,1.7615764087927849080640325823672
444,1.7620304513491657063061440696583
445,1.7624834728055875998242162249256
446,1.7629354777491423507458339076749
447,1.7633864707361076715103365983949
448,1.7638364562922206878575222876776
449,1.7642854389129524582979308706949
450,1.7647334230637757024750498083007
451,1.7651804131804332414818951452225
452,1.7656264136691999914481507303869
453,1.7660714289071442534375927365230
454,1.7665154632423846885713185271975
455,1.7669585209943466022159886005402
456,1.7674006064540128342021932950125
457,1.7678417238841739507457046799706
458,1.7682818775196741339331496821046
459,1.7687210715676552826619133009237
460,1.7691593102077989673415327336354
461,1.7695965975925640880451323535844
462,1.7700329378474234491251242980548
463,1.7704683350710978540266942216549
464,1.7709027933357858811680199639440
465,1.7713363166873933095845403236720
466,1.7717689091457593249962723496898
467,1.7722005747048787867753853113156
468,1.7726313173331255714159949445451
469,1.7730611409734694691633961463639
470,1.7734900495436941583034876585794
471,1.7739180469366105241786963870617
472,1.7743451370202696205012846834814
473,1.7747713236381706238252106840015
474,1.7751966106094712851279840971181
475,1.7756210017291898012150151578108
476,1.7760445007684106197090775484094
477,1.7764671114744845105771105922859
478,1.7768888375712275801387278498859
479,1.7773096827591181168954483031905
480,1.7777296507154916637155879128001
481,1.7781487450947328672031254854700
482,1.7785669695284676729902516518493
483,1.7789843276257512469018669178778
484,1.7794008229732544416980003636358
485,1.7798164591354502862198772654828
486,1.7802312396547950816818060745847
487,1.7806451680519109538391880689017
488,1.7810582478257644574657495122251
489,1.7814704824538444611860163361409
490,1.7818818753923371756522072704486
491,1.7822924300763004592099598263955
492,1.7827021499198359890987891159367
493,1.7831110383162592730535494286344
494,1.7835190986382685952009024697635
495,1.7839263342381110885988663903707
496,1.7843327484477491786901649706835
497,1.7847383445790230830374505989333
498,1.7851431259238133124382492827234
499,1.7855470957542006705828156941323
500,1.785950257322625882566042373994
501,1.786352613862044598101090193931
502,1.786754168586085224420836777504
503,1.787154924689201056794632777574
504,1.787554885346824550296130232322
505,1.787954053715516580080900989020
506,1.788352432933116420051357159268
507,1.788750026118890287721808007253
508,1.789146836373678095024876428776
509,1.789542866780036635726734635382
510,1.789938120402385262462873034285
511,1.790332600287147284241464808075
512,1.790726309462890984380101857709
513,1.791119250940468874381295162885
514,1.791511427713155859977046764802
515,1.791902842756786693409188361516
516,1.792293499029890922101326981036
517,1.792683399473826408281346819953
518,1.793072547012913204759870391230
519,1.793460944554564568628535135629
520,1.793848594989417969701556012447
521,1.794235501191462888749570630110
522,1.794621666018169681546847045456
523,1.795007092310615945709743807582
