Eigenstate,Potential Energy
1,0.500000000052722757994442107411443628
2,0.64623093799526149656938315368843878
3,0.73633761071588001765110048664795125
4,0.79966527991983935252547326683937723
5,0.8480465789330216815215099181230646
6,0.8870660025141941506477009203299021
7,0.9197208321034539117256564471116632
8,0.9477838540787713465826199546408756
9,0.9723835674470310019863199735633223
10,0.9942802263571969200454952435042375
11,1.0140094009505841542984733017290777
12,1.0319621865320323920280099744844579
13,1.0484327131675206128821431099874379
14,1.0636476785403417735205954686380288
15,1.0777854637652956296265059364420314
16,1.090988938259138854090816221143813
17,1.103374293202092759122375460489775
18,1.115037292544045118275754966699102
19,1.126057796108529477002337567169645
20,1.136503097226662835448259585836170
21,1.146430428818843750311635543670417
22,1.155888874553493165839127544852760
23,1.164920846783579603562191942645394
24,1.173563243947041736472007047208393
25,1.181848367362715107163815129945693
26,1.189804655037920138722123703271473
27,1.197457274631038180290684943404609
28,1.204828606810551516289522899163834
29,1.211938642456995444055084273452274
30,1.218805311504782953490874152973281
31,1.225444757074924040887084302144120
32,1.231871565471762103370044385895326
33,1.238098960307202055608029703973096
34,1.244138967265358543733343287042081
35,1.250002554681357565371901707346564
36,1.255699754074545925855060332020848
37,1.261239763972278411977668353009658
38,1.266631039730033821382196758768135
39,1.271881371555762336024311660499778
40,1.276997952550545944549720642319159
41,1.281987438260903344629963553568704
42,1.286855998983078154752696898730555
43,1.291609365853162920009674174674810
44,1.296252871588817380893724351649403
45,1.300791486610769905097606070757403
46,1.305229851159154699697566424425921
47,1.309572303926260808759990303611303
48,1.313822907649682537151394728448291
49,1.317985472045198397427405738220084
50,1.32206357440458296301670786366443
51,1.32606057813808904843835913014857
52,1.32997964950299242298710989762019
53,1.33382377272714114577193705962316
54,1.33759576370889047853400071633522
55,1.34129828245132884015596713630194
56,1.34493384436862569664750978381040
57,1.34850483058513331527106661909120
58,1.35201349733307712517975608937373
59,1.35546198454191547966278907415154
60,1.35885232370142510739066102718517
61,1.36218644507100431254686648528526
62,1.36546618429938497861880352266484
63,1.36869328851170254159921171381771
64,1.37186942191456061842693178851882
65,1.37499617096419213652256629635666
66,1.37807504913797147122000482574938
67,1.38110750134526980656865880561269
68,1.38409490800988977417240278569962
69,1.38703858885300275400421629693448
70,1.38993980640258395287097428743424
71,1.39279976925274167247192996396933
72,1.39561963509403893661388089824700
73,1.39840051353385264074282042684285
74,1.40114346872399653839855740246829
75,1.40384952181120327809589372993327
76,1.40651965322461114738031808336182
77,1.40915480481309878238814468735933
78,1.41175588184414530306060547639539
79,1.41432375487484651416906108257551
80,1.41685926150477968666387140940299
81,1.41936320801956009238295215754353
82,1.42183637093317101460224980085276
83,1.42427949843646022312069761693910
84,1.42669331175857161085603740311742
85,1.42907850644752141275412768539645
86,1.43143575357561256242487844685505
87,1.43376570087492327111824758663569
88,1.43606897380768253591779219028005
89,1.43834617657596178186776550970223
90,1.44059789307476862602052111750785
91,1.44282468779230729934020464458195
92,1.44502710666088196485954976941835
93,1.44720567786165691543095809159815
94,1.44936091258624470567494944394900
95,1.45149330575787211870002304279519
96,1.45360333671467204605146678686840
97,1.45569146985746501723727336636852
98,1.45775815526422124088422797468291
99,1.45980382927324054738855105367593
100,1.46182891503694128250904602965953
101,1.46383382304801989719646679183563
102,1.46581895163961740423163265636568
103,1.46778468746102095863191637985427
104,1.46973140593032155407562348833548
105,1.47165947166535575383638727667489
106,1.47356923889416861047655954712342
107,1.47546105184615684659268028499215
108,1.47733524512497212935227166019053
109,1.47919214406419567802654457408731
110,1.48103206506673302359897259604437
111,1.48285531592881187833093334442011
112,1.48466219614941663953230176122894
113,1.48645299722593751599089821993133
114,1.48822800293676350775813537610339
115,1.48998748961150802148597098737758
116,1.49173172638950757186183478847820
117,1.49346097546720230668170390816483
118,1.49517549233496606199568980538311
119,1.49687552600391994004446329698946
120,1.49856131922323756046996724109464
121,1.50023310868841186803925660472560
122,1.50189112524093446698809559402245
123,1.50353559405980625915857809238884
124,1.50516673484528048329667639456269
125,1.50678476199520968661235050020466
126,1.50838988477435296240756694139299
127,1.50998230747697920969097955010924
128,1.51156222958307958350837198759512
129,1.51312984590849023147983751100513
130,1.51468534674920803016733156982258
131,1.51622891802016663077840602752671
132,1.51776074138872514651128029384853
133,1.51928099440311003226177004716106
134,1.52078985061603943145495886690258
135,1.52228747970374115642109233006458
136,1.52377404758057178120515055788718
137,1.52524971650943101775633403107716
138,1.52671464520815193445262618876630
139,1.52816898895204547001049765590065
140,1.52961289967276224986130814120879
141,1.53104652605363015458614331060281
142,1.53247001362161801673385026313037
143,1.53388350483606717217775333098999
144,1.53528713917432541252970475523999
145,1.53668105321441369737083153221329
146,1.53806538071484811630774960607298
147,1.53944025269173138789704330440370
148,1.54080579749322922444720137583867
149,1.54216214087153336363364330434741
150,1.54350940605241490778435082121136
151,1.54484771380246388507119436582494
152,1.54617718249410533175611105841242
153,1.54749792816848084516577674867242
154,1.54881006459627950661573683934117
155,1.55011370333659641025565689552346
156,1.55140895379389666417750753626466
157,1.55269592327315591036776286579751
158,1.55397471703324918158323274366662
159,1.5552454383386517679615183434626
160,1.5565081885095184308818647801098
161,1.5577630669701994601732763139856
162,1.5590101712962530357472509847407
163,1.5602495972600087469306118568479
164,1.5614814388747369060695079543140
165,1.5627057884374722565987898572826
166,1.5639227365705425911412109869895
167,1.5651323722618495119327823336289
168,1.5663347829039440224641378651357
169,1.5675300543319420124047133422950
170,1.5687182708603193789026389120871
171,1.5698995153186269786971130172908
172,1.5710738690861632776784238278201
173,1.5722414121256401002028471014491
174,1.5734022230158773216534561785809
175,1.5745563789835604891567959402035
176,1.5757039559340910767850898747382
177,1.5768450284815626357586467114831
178,1.5779796699778919940217824685464
179,1.5791079525411319501151834557230
180,1.5802299470829964077210374771091
181,1.5813457233356205994442469809434
182,1.5824553498775840951925770699807
183,1.5835588941592196444071371142094
184,1.5846564225272320936565703226834
185,1.5857480002486491876960536300202
186,1.5868336915341252225874597811544
187,1.5879135595606213513561045855658
188,1.5889876664934779784756920643530
189,1.5900560735079029742466590423754
190,1.5911188408098913601200789814691
191,1.5921760276565956874929863262088
192,1.5932276923761634921519099513650
193,1.5942738923870601281854185416897
194,1.5953146842168903221210571244219
195,1.5963501235207363796174151308872
196,1.5973802650990267365829427390810
197,1.5984051629149492300139443221594
198,1.5994248701114232505015626782608
199,1.6004394390276436102331445782993
200,1.6014489212152100666577902819250
201,1.6024533674538534782044130774298
202,1.6034528277667719681737337579882
203,1.6044473514355877514951878813129
204,1.6054369870149362392207875941193
205,1.6064217823466973860773046480223
206,1.6074017845738822997843141204956
207,1.6083770401541809827734808924345
208,1.6093475948731854277242104187666
209,1.6103134938572938097535287664186
210,1.6112747815863072708702079319888
211,1.6122315019057266556598382363187
212,1.6131836980387594253340157024700
213,1.6141314125980411280430040965000
214,1.6150746875970864011456742125678
215,1.6160135644614687116735225793715
216,1.6169480840397427894504520087511
217,1.6178782866141137119150167028699
218,1.6188042119108616131002187156246
219,1.6197258991105252897115071148620
220,1.6206433868578572124352635415445
221,1.6215567132715478447730659059615
222,1.6224659159537364667716760962257
223,1.6233710319993020644851487224387
224,1.6242720980049493444724301573398
225,1.6251691500780924298779170775786
226,1.6260622238455397760412135708085
227,1.6269513544619889484874005857819
228,1.6278365766183330735034105496972
229,1.6287179245497861134484344636072
230,1.6295954320438316530409146798099
231,1.6304691324479969858905336425249
232,1.6313390586774629101936084840534
233,1.6322052432225042190942829465728
234,1.6330677181557770317756363648566
235,1.6339265151394461363785191979544
236,1.6347816654321620435145719912503
237,1.6356331998958913704983160957374
238,1.6364811490026022873074658632058
239,1.6373255428408104598482401901039
240,1.6381664111219876439413027143794
241,1.6390037831868372113729158883651
242,1.6398376880114394639582939502085
243,1.6406681542132707663878781466259
244,1.6414952100570981860877228933070
245,1.6423188834607540132022838310497
246,1.6431392020007926792629186385759
247,1.6439561929180314563239468791706
248,1.6447698831229825171170461168847
249,1.6455802992011713247352987162586
250,1.6463874674183517359649121342413
251,1.6471914137256157176876022444597
252,1.6479921637644004742657192716658
253,1.6487897428713980575250376035131
254,1.6495841760833671156055107688381
255,1.6503754881418506601205204343733
256,1.6511637034977999364056806112255
257,1.6519488463161107876135985022495
258,1.6527309404800689567266845452744
259,1.6535100095957111293524536690594
260,1.6542860769961021030190665509650
261,1.6550591657455283960427435179425
262,1.6558292986436130207127623493571
263,1.6565964982293502706957772813641
264,1.6573607867850659728319597000360
265,1.6581221863403017278707611028898
266,1.6588807186756253071981142918081
267,1.6596364053263704181081923228179
268,1.6603892675863058706389007936194
269,1.6611393265112384151912455359911
270,1.6618866029225449743781746200297
271,1.6626311174106435523602020641623
272,1.6633728903383968005342835889605
273,1.6641119418444556819911762628080
274,1.6648482918465404430616230900666
275,1.6655819600446627668325739267828
276,1.6663129659242873862883992572191
277,1.6670413287594406403940851893728
278,1.6677670676157577270700274338001
279,1.6684902013534801555316642816868
280,1.6692107486303954908658440219791
281,1.6699287279047272796763933475797
282,1.6706441574379726530740035103941
283,1.6713570552976908194664822566791
284,1.6720674393602396036929632813124
285,1.6727753273134668397727168770931
286,1.6734807366593526420224234810111
287,1.6741836847166076138447375907573
288,1.6748841886232233959735737550409
289,1.6755822653389802022516368243301
290,1.6762779316479120754790613226646
291,1.6769712041607277042851862920027
292,1.6776620993171896859422146059602
293,1.6783506333884561409079761081719
294,1.6790368224793797160261056306162
295,1.6797206825307660635409699299917
296,1.6804022293215993815026346594027
297,1.6810814784712249473003809231813
298,1.6817584454414979610913326199658
299,1.6824331455388955019948478047296
300,1.6831055939165933476720076020932
301,1.6837758055765080687417871860487
302,1.6844437953713064909807127703992
303,1.6851095780063796984500691883737
304,1.6857731680417851550950395521438
305,1.6864345798941583733588791551215
306,1.6870938278385933930470862263125
307,1.6877509260104892524328980309585
308,1.6884058884073699300701040410251
309,1.6890587288906738466159994806078
310,1.6897094611875132618503721567195
311,1.6903580988924071618321211282398
312,1.6910046554689851493663939305940
313,1.6916491442516637305710566723116
314,1.6922915784472968018574093233556
315,1.6929319711367996570104764737813
316,1.6935703352767478900527971255704
317,1.6942066837009487325403096141427
318,1.6948410291219901765788537536800
319,1.6954733841327650251682677654613
320,1.6961037612079698711771624175552
321,1.6967321727055829239287717976203
322,1.6973586308683167978762194870877
323,1.6979831478250497774528903901173
324,1.6986057355922345352863667037379
325,1.6992264060752860658056129520317
326,1.6998451710699470715179722719844
327,1.7004620422636336227617461375633
328,1.7010770312367582801802436248811
329,1.7016901494640356548284901281444
330,1.7023014083157668376310323533722
331,1.7029108190591041368209462621582
332,1.7035183928592971846388822985983
333,1.7041241407809207918850009349453
334,1.7047280737890827343857223898054
335,1.7053302027506157863472267148317
336,1.7059305384352500586877571855580
337,1.7065290915167685146352234631137
338,1.7071258725741467214850234654141
339,1.7077208920926729030672599768974
340,1.7083141604650543843076514322095
341,1.7089056879925061415058472885984
342,1.7094954848858239555248520867290
343,1.7100835612664418057289823430432
344,1.7106699271674734984246275066385
345,1.7112545925347403491874804548370
346,1.7118375672277823939215767108128
347,1.7124188610208566940591457386613
348,1.7129984836039195476786426159508
349,1.7135764445835961515183479500042
350,1.7141527534841352562820887709015
351,1.7147274197483509028953227253813
352,1.7153004527385509221355284022740
353,1.7158718617374514820736854138807
354,1.7164416559490790978631716607922
355,1.7170098444996604692216255858605
356,1.7175764364384983554583819729955
357,1.7181414407388367271561789787697
358,1.7187048662987144385808652176487
359,1.7192667219418031660324467783155
360,1.7198270164182385501317736493885
361,1.7203857584054362869895105744450
362,1.7209429565088996499370373198382
363,1.7214986192630130375127581783307
364,1.7220527551318265717804700757023
365,1.7226053725098299834323048273146
366,1.7231564797227146614316009449204
367,1.7237060850281267592940704126732
368,1.7242541966164081468279948589149
369,1.7248008226113298399697174982571
370,1.7253459710708136219842524428615
371,1.7258896499876447094368691338025
372,1.7264318672901744195121904637664
373,1.7269726308430128054973735983925
374,1.7275119484477155690101811717417
375,1.7280498278434559406461504921147
376,1.7285862767076929853662142637982
377,1.7291213026568281219443398407131
378,1.7296549132468530239951045429327
379,1.7301871159739907424959814026042
380,1.7307179182753268066827600142034
381,1.7312473275294331788705208882592
382,1.7317753510569821814872886551382
383,1.7323019961213550711031678244604
384,1.7328272699292402232769283322957
385,1.7333511796312245496007200072870
386,1.7338737323223788057201027754632
387,1.7343949350428325397946167185315
388,1.7349147947783426183272061226323
389,1.7354333184608560041786044421698
390,1.7359505129690639760077148495095
391,1.7364663851289481062111688267083
392,1.7369809417143216058787564860690
393,1.7374941894473635103887649337782
394,1.7380061349991442868820561022944
395,1.7385167849901457206314985644241
396,1.7390261459907747313206037534810
397,1.7395342245218707492875655686908
398,1.7400410270552066600223238606227
399,1.7405465600139818828593870152304
400,1.7410508297733118839833370142496
401,1.7415538426607101728258541326742
402,1.7420556049565635272332802116677
403,1.7425561228946032683110294256069
404,1.7430554026623704782028919206012
405,1.7435534504016726264237903810788
406,1.7440502722090377139552938177748
407,1.7445458741361630520030153524251
408,1.7450402621903561787916882192446
409,1.7455334423349707756624485751099
410,1.7460254204898400971376098746844
411,1.7465162025317021751668767965090
412,1.7470057942946203803377461617778
413,1.7474942015704004193126685269450
414,1.7479814301090001925431817912808
415,1.7484674856189367964301691693797
416,1.7489523737676870997779131715647
417,1.7494361001820847432431034149144
418,1.7499186704487107252393152753180
419,1.7504000901142818530313917770396
420,1.7508803646860320411732721839765
421,1.7513594996320904097056146134196
422,1.7518375003818554639567544208316
423,1.7523143723263631923284093529860
424,1.7527901208186526960412252867418
425,1.7532647511741257304510072465094
426,1.7537382686709037650346729286525
427,1.7542106785501800469386482667362
428,1.7546819860165666820444841067777
429,1.7551521962384406462117617814457
430,1.7556213143482815890819023282344
431,1.7560893454430089343804965816263
432,1.7565562945843154265200311106607
433,1.7570221667989924616943057258704
434,1.7574869670792583017021267128240
435,1.7579507003830769944762899917051
436,1.7584133716344759026231299356972
437,1.7588749857238600016559379435771
438,1.7593355475083219303114331130008
439,1.7597950618119484745808407636652
440,1.7602535334261245570062424012124
441,1.7607109671098318914364704025152
442,1.7611673675899458672359849491347
443,1.7616227395615303109996934300591
444,1.7620770876881247455053327520263
445,1.7625304166020334769331161485137
446,1.7629827309046075350764411755562
447,1.7634340351665266360978460489517
448,1.7638843339280743864236886382078
449,1.7643336316994145686794790319050
450,1.7647819329608606625173257200559
451,1.7652292421631461038433912163545
452,1.7656755637276881242179567092368
453,1.7661209020468509139337153982313
454,1.7665652614842044981601928836687
455,1.7670086463747829504784631744901
456,1.7674510610253372412655622028266
457,1.7678925097145874171019503383267
458,1.7683329966934705075788911604910
459,1.7687725261853866739190029463961
460,1.7692111023864432422504752683846
461,1.7696487294656944717697743616291
462,1.7700854115653802713618769866120
463,1.7705211528011624689801643184198
464,1.7709559572623567952323607490833
465,1.7713898290121645504621027740769
466,1.7718227720879010865873206900377
467,1.7722547905012203847876870576788
468,1.7726858882383407452707423381750
469,1.7731160692602640664160892450923
470,1.7735453375029962384516989850026
471,1.7739736968777629193948905936278
472,1.7744011512712249915151671553374
473,1.7748277045456890498690256867996
474,1.7752533605393204275750350882152
475,1.7756781230663476812641867501429
476,1.7761019959172710512071660514005
477,1.7765249828590652298312099664402
478,1.7769470876353811153382248553729
479,1.7773683139667454405567006976948
480,1.7777886655507586723629037580113
481,1.7782081460622897333267013354591
482,1.7786267591536711151580667906015
483,1.7790445084548897647649487537271
484,1.7794613975737765634997357042602
485,1.7798774300961958773212141670848
486,1.7802926095862297635237698101211
487,1.7807069395863636837034733313684
488,1.7811204236176683203470981944203
489,1.7815330651799807260658888977864
490,1.7819448677520826694613897442442
491,1.7823558347918783127848766765562
492,1.7827659697365698104816690613269
493,1.7831752760028308045472902892901
494,1.7835837569869789116799270629270
495,1.7839914160651453956883914597979
496,1.7843982565934452705638358237511
497,1.7848042819081435207453341167688
498,1.7852094953258213848667598907551
499,1.7856139001435402013599951917184
500,1.786017499639004947471913209158
501,1.786420297070723218811105906860
502,1.786822295678167105709689351490
503,1.787223498681929435656631445875
504,1.787623909283882226797949953670
505,1.788023530667330201151291841558
506,1.788422365997165088835673450031
507,1.788820418420018572583095866176
508,1.789217691064413513758747811295
509,1.789614187040911692086538987172
510,1.790009909442264113640285801144
511,1.790404861343557119549983599435
512,1.790799045802358197013477194608
513,1.791192465858860109792680612994
514,1.791585124536024026130775922802
515,1.791977024839722019906974096281
516,1.792368169758877156972864595795
517,1.792758562265602243064446783162
518,1.793148205315339020367680202987
519,1.793537101846994596425124369759
520,1.793925254783077964171038503862
521,1.794312667029833410159118139472
522,1.794699341477375089065786641676
523,1.795085280999819203557329449759
