Eigenstate,Potential Energy
1,0.500000000054070859315493069155016665
2,0.64623093800406122641435849894033478
3,0.73633761074172863701261681750232990
4,0.79966527997367942613002838541221374
5,0.8480465790262844813514739597955621
6,0.8870660026585115005866781343065848
7,0.9197208323105520782416120409386065
8,0.9477838543604268444873613835347671
9,0.9723835678150500971135228183532870
10,0.9942802268234052748340539065452163
11,1.0140094015268212482523588893950660
12,1.0319621872301483754398008871111528
13,1.0484327139993744852935495184321859
14,1.0636476795178003246308785422969765
15,1.0777854649002328402318065833053820
16,1.090988939563435586053847259217812
17,1.103374294687636633415439693447591
18,1.115037294222730519214285499166765
19,1.126057797992257643470364573663776
20,1.136503099327342013556632846841747
21,1.146430431148389390389872102600478
22,1.155888877123828152056726807829966
23,1.164920849606634508002218085024903
24,1.173563247034755091837694412200307
25,1.181848370727033693907674817082444
26,1.189804658690799283504988358777625
27,1.197457278584442063468230504016616
28,1.204828611076453486690874696419624
29,1.211938647047378339730911295576767
30,1.218805316431639427412822997568510
31,1.225444762350256890807681293651362
32,1.231871571107584605223761145384760
33,1.238098966315538299965089023082499
34,1.244138973658243774918653238149144
35,1.250002561470838522939871678050882
36,1.255699761272681188172483723682146
37,1.261239771591138741715405616222196
38,1.266631047781702512755058065743794
39,1.271881380052335563649515197593862
40,1.276997961504133113819353160700629
41,1.281987447683627443513190266351642
42,1.286856008887076106960080641016686
43,1.291609376250585939465652779236976
44,1.296252882491831327474573227341683
45,1.300791498031555641601599572222818
46,1.305229863109908450021918380274888
47,1.309572316419194517265715898820956
48,1.313822920697024229202802181223921
49,1.317985485659192541097625289239228
50,1.32206358859749083195468735450496
51,1.32606059292218908589616012479952
52,1.32997966489058060700930429091624
53,1.33382378873053135555142369046712
54,1.33759578034041486194076461510156
55,1.34129829972333818244723186757106
56,1.34493386229348979036937798581248
57,1.34850484917524133136323285456273
58,1.35201351660083798529615964533409
59,1.35546200449975822972221888601955
60,1.35885234436179929237233666300840
61,1.36218646644638035254694061170173
62,1.36546620640225454618453551968438
63,1.36869331135457894035829941760360
64,1.37186944550997916303015888597690
65,1.37499619532471053391851861450698
66,1.37807507427617020328116819013800
67,1.38110752727375251408872894200720
68,1.38409493474128364225509059427921
69,1.38703861639995889886427913426672
70,1.38993983477777781006860571656669
71,1.39279979846887338660202480009333
72,1.39561966516383375247205526418113
73,1.39840054447006129599039687719219
74,1.40114350053939565774904806166168
75,1.40384955451859576904583906219851
76,1.40651968683682659750760778056443
77,1.40915483934299385824126296222157
78,1.41175591730460415066249034507399
79,1.41432379127878116115955394891484
80,1.41685929886513044610497248740812
81,1.41936324634929596825138538531058
82,1.42183641024529010899404831279788
83,1.42427953874399014519280923037740
84,1.42669335307456988753013975075907
85,1.42907854878507590120814567495097
86,1.43143579694784186439786494774491
87,1.43376574529497714905458848454263
88,1.43606901928874233097686594278677
89,1.43834622313124083382548589010648
90,1.44059794071751269508936526590474
91,1.44282473653579498993461719675856
92,1.44502715651842515133376731958672
93,1.44720572884660116981663936553577
94,1.44936096471196972744613006382559
95,1.45149335903779216659321378074312
96,1.45360339116223637196891316098254
97,1.45569152548615830226166195327860
98,1.45775821208756403343331639918570
99,1.45980388730478970353853511443950
100,1.46182897429029040851558642866366
101,1.46383388353679979424265887460342
102,1.46581901337749651543240832375766
103,1.46778475046170581832458318499516
104,1.46973147020755723942657231722399
105,1.47165953723292633879417794460597
106,1.47356930576589762210190742322510
107,1.47546112003590772379611448962438
108,1.47733531464664868407047912751574
109,1.47919221493174255886868830399273
110,1.48103213729413618199457189946543
111,1.48285538953009903721112509591125
112,1.48466227113865776457662785971000
113,1.48645307361724528947198349886147
114,1.48822808074429380501695256852299
115,1.48998756884946039007063588725587
116,1.49173180707212571336322335527105
117,1.49346105760877456129944238880957
118,1.49517557594982589586832271274379
119,1.49687561110644643537801582009771
120,1.49856140582785590849929121788436
121,1.50023319680959386485700470808486
122,1.50189121489319901227635876568565
123,1.50353568525771985785859666069753
124,1.50516682760345775025233543933544
125,1.50678485632831385422356523666590
126,1.50838998069709639132986623691278
127,1.50998240500412390261807376719467
128,1.51156232872943770207472281463595
129,1.51312994668892461632063443956417
130,1.51468544917863272417366399600871
131,1.51622902211354740558571000606567
132,1.51776084716108003225950164558282
133,1.51928110186950985066613042084381
134,1.52078995979160833222650548951044
135,1.52228759060365715707658073969160
136,1.52377416022006731030621663079850
137,1.52524983090379346161829462042760
138,1.52671476137272418736367782915173
139,1.52816910690222648800234328549837
140,1.52961301942400760807283501887486
141,1.53104664762145260826191458106259
142,1.53247013702158806589995833139438
143,1.53388363008381363003762373846569
144,1.53528726628553597762309335814944
145,1.53668118220483552953953932806560
146,1.53806551160028841651221337377984
147,1.53944038548805798192816358775114
148,1.54080593221637115057837939029602
149,1.54216227753748146425833963904320
150,1.54350954467722242508507776141142
151,1.54484785440224706076615713936119
152,1.54617732508504401097030034399619
153,1.54749807276681908447371365775832
154,1.54881021121832618630361555297184
155,1.55011385199872585085105053321471
156,1.55140910451254924729545803882700
157,1.55269607606483870392226375129461
158,1.55397487191453656941401398318049
159,1.5552455953261860839262361519220
160,1.5565083476200105974645353750584
161,1.5577632282204296316601635271151
162,1.5590103347030712460221261315993
163,1.5602497628403355619416380197240
164,1.5614816066455640810208108158533
165,1.5627059584158633979200468300271
166,1.5639229087736338232894519347875
167,1.5651325467068501490808923312068
168,1.5663349596081372451314089462576
169,1.5675302333126855490851550491837
170,1.5687184521350461927474324176239
171,1.5698996989048459593083179272624
172,1.5710740550014599380714915646148
173,1.5722416003876772789961868463204
174,1.5734024136423958905439623232110
175,1.5745565719923800657408319973339
176,1.5757041513431107427851677416120
177,1.5768452263087616607165805408653
178,1.5779798702413305645198236334316
179,1.5791081552589519045873345402477
180,1.5802301522734219769173782128422
181,1.5813459310169591526119308726817
182,1.5824555600682268920376816826450
183,1.5835591068776425929023809667444
184,1.5846566377919965137606157043815
185,1.5857482180784025810508457181541
186,1.5868339119476020482607992039300
187,1.5879137825766438076974068294127
188,1.5889878921309567911536391640440
189,1.5900563017858381905382253071069
190,1.5911190717473731495213156466189
191,1.5921762612728051487224900511021
192,1.5932279286903734666189930430633
193,1.5942741314186360199956557772359
194,1.5953149259852909246927605166152
195,1.5963503680455147089834270556580
196,1.5973805123998308714530121343459
197,1.5984054130115231586737458913110
198,1.5994251230236077246254584266894
199,1.6004396947753770056885275847703
200,1.6014491798185292513797298143167
201,1.6024536289328946872204678628797
202,1.6034530921417716858594609260181
203,1.6044476187268836011419716711812
204,1.6054372572429678799986130422776
205,1.6064220555320074174757406486479
206,1.6074020607371171736165598237137
207,1.6083773193160919228287331803908
208,1.6093478770546293571548627489264
209,1.6103137790792342862849463748266
210,1.6112750698698154299214219992923
211,1.6122317932719821614648562302348
212,1.6131839925090514301545276354052
213,1.6141317101937692395642015075657
214,1.6150749883397616581480565792050
215,1.6160138683727145680748638541771
216,1.6169483911412961068127808808224
217,1.6178785969278257605132071773714
218,1.6188045254586990816493771688667
219,1.6197262159145713038520436087213
220,1.6206437069403123620751547567503
221,1.6215570366547312203888018868798
222,1.6224662426600867047697650810780
223,1.6233713620513784017279243998240
224,1.6242724314254326820728565987125
225,1.6251694868897864063697314266260
226,1.6260625640713718500314151961297
227,1.6269516981250114909002064178125
228,1.6278369237417244695253448968494
229,1.6287182751568518742863150320073
230,1.6295957861580055376053567475802
231,1.6304694900928421325194580035056
232,1.6313394198766729785308496887430
233,1.6322056079999045422409184461126
234,1.6330680865353257788323898651173
235,1.6339268871452354854991819882544
236,1.6347820410884193655921341405703
237,1.6356335792269804236068228465443
238,1.6364815320330244220241123051702
239,1.6373259295952058355820911769428
240,1.6381668016251364563963810915185
241,1.6390041774636609312750072560950
242,1.6398380860870020871765844194683
243,1.6406685561127800755841917640245
244,1.6414956158059070240277792399664
245,1.6423192930843615678650628316409
246,1.6431396155248457808860885385890
247,1.6439566103683258865251263827535
248,1.6447703045254643302320423873487
249,1.6455807245819381815170635051051
250,1.6463878968036542497880392632667
251,1.6471918471418588134054109957060
252,1.6479926012381447598689781027309
253,1.6487901844293612087531733036500
254,1.6495846217524252736630610182989
255,1.6503759379490398426537854154115
256,1.6511641574703174618962592564624
257,1.6519493044813167133476720846230
258,1.6527314028654875305014135464904
259,1.6535104762290322550821042878244
260,1.6542865479051828204066153251303
261,1.6550596409583943744838353761244
262,1.6558297781884600676021630736642
263,1.6565969821345458543080139450939
264,1.6573612750791507599504177303320
265,1.6581226790519911363416670534436
266,1.6588812158338110735883606565856
267,1.6596369069601221806479407557424
268,1.6603897737248727676332309563881
269,1.6611398371840506990863119572592
270,1.6618871181592156416711103072907
271,1.6626316372409699895433745949636
272,1.6633734147923624462682091052326
273,1.6641124709522317057019281473894
274,1.6648488256384874401624129646991
275,1.6655824985513324707705269319432
276,1.6663135091764243976215774636353
277,1.6670418767879841731056419320046
278,1.6677676204518433723299519288891
279,1.6684907590284416631184132254182
280,1.6692113111757665684647160346289
281,1.6699292953522434102725148555971
282,1.6706447298195729306624614460341
283,1.6713576326455198033041438490278
284,1.6720680217066491913201098867996
285,1.6727759146910181590356247321105
286,1.6734813291008179623314418930215
287,1.6741842822549722769051497542154
288,1.6748847912916877662304289330458
289,1.6755828731709616372927677225992
290,1.6762785446770469166439608739820
291,1.6769718224208732877309539032937
292,1.6776627228424263744212492526635
293,1.6783512622130893765155968281442
294,1.6790374566379420941801140908655
295,1.6797213220580194284586859415286
296,1.6804028742525369434446843949389
297,1.6810821288410734218544506545654
298,1.6817591012857197307729787331349
299,1.6824338068931908004463462612037
300,1.6831062608169024667439171945912
301,1.6837764780590135887467571803215
302,1.6844444734724355344121307245034
303,1.6851102617628062074633611813908
304,1.6857738574904321930531679691753
305,1.6864352750722004507476683251369
306,1.6870945287834588180711632109797
307,1.6877516327598625066069774931934
308,1.6884066009991940691247385457786
309,1.6890594473631529270423749007604
310,1.6897101855791147934124286788852
311,1.6903588292418645863796211386887
312,1.6910053918153003462875578949544
313,1.6916498866341095492277020402302
314,1.6922923269054196213512268995307
315,1.6929327257104219736337233714783
316,1.6935710960059709327823109265450
317,1.6942074506261551069384009484169
318,1.6948418022838465374707275782951
319,1.6954741635722247784703090061614
320,1.6961045469662759052569526147551
321,1.6967329648242703708822402309975
322,1.6973594293892158251139030964830
323,1.6979839527902884099926762170798
324,1.6986065470442415091562301781993
325,1.6992272240567937129658621450110
326,1.6998459956239942367185552439184
327,1.7004628734335686127562921408326
328,1.7010778690662418457254408144850
329,1.7016909939970440059033761865077
330,1.7023022595965946923168171541075
331,1.7029116771323678042900794654137
332,1.7035192577699376827077308918333
333,1.7041250125742069995913766654779
334,1.7047289525106145800606152698367
335,1.7053310884463274716557868744541
336,1.7059314311514133191228951859673
337,1.7065299912999959169546707540097
338,1.7071267794713949985889934902755
339,1.7077218061512463268229603309145
340,1.7083150817326081768340838370061
341,1.7089066165170499254397065554606
342,1.7094964207157252437976683410713
343,1.7100845044504295313926891386617
344,1.7106708777546415850714438010863
345,1.7112555505745513225190914729818
346,1.7118385327700710350302577776262
347,1.7124198341158337349931096352331
348,1.7129994643021754098722335616947
349,1.7135774329361047276774613107441
350,1.7141537495422577363236237446696
351,1.7147284235638396445499543792168
352,1.7153014643635533668319244735842
353,1.7158728812245141167320432796932
354,1.7164426833511514632367078630314
355,1.7170108798700992154340629012887
356,1.7175774798310713453958441148013
357,1.7181424922077271883828914646484
358,1.7187059258985251644581996601876
359,1.7192677897275607667321969733681
360,1.7198280924453977542452907829389
361,1.7203868427298842944460095020258
362,1.7209440491869605369554823982104
363,1.7214997203514522143235012889586
364,1.7220538646878552938652926388753
365,1.7226064905911099170427775015012
366,1.7231576063873625041587242785964
367,1.7237072203347189164746479975826
368,1.7242553406239854645856138484209
369,1.7248019753794023957016856417890
370,1.7253471326593655731192526531295
371,1.7258908204571392013009703992625
372,1.7264330467015585531557107937597
373,1.7269738192577226663479093892263
374,1.7275131459276813172327644893645
375,1.7280510344511069641048610412054
376,1.7285874925059631160974181944208
377,1.7291225277091609170662329769805
378,1.7296561476172071119939987714641
379,1.7301883597268452358455809853777
380,1.7307191714756867817684008123044
381,1.7312485902428352242066732428205
382,1.7317766233495000152338340502167
383,1.7323032780596052289019371605240
384,1.7328285615803878174486422139886
385,1.7333524810629891007587072510172
386,1.7338750436030401478751896058239
387,1.7343962562412368000460835501612
388,1.7349161259639082722498885822335
389,1.7354346597035800080380425212993
390,1.7359518643395279769532550549684
391,1.7364677466983247316172740659788
392,1.7369823135543808330244932381445
393,1.7374955716304791176861760597540
394,1.7380075275983003878850560512757
395,1.7385181880789433820783689014516
396,1.7390275596434386764846212509327
397,1.7395356488132561479332268472204
398,1.7400424620608060062858326074527
399,1.7405480058099319623965706858080
400,1.7410522864364008317522033452779
401,1.7415553102683846228913729088268
402,1.7420570835869358560117935864443
403,1.7425576126264589326922808039924
404,1.7430569035751754500154016473234
405,1.7435549625755809247344555930622
406,1.7440517957248990367207251440179
407,1.7445474090755305086171532127983
408,1.7450418086354941251027248916422
409,1.7455350003688627530579434355170
410,1.7460269901961968773281370369850
411,1.7465177839949699123255165000990
412,1.7470073875999888722844239746569
413,1.7474958068038114794617018673803
414,1.7479830473571561343632977117335
415,1.7484691149693090322000159373958
416,1.7489540153085248554492191288138
417,1.7494377540024238912602600301689
418,1.7499203366383827371948382942217
419,1.7504017687639228740732396119114
420,1.7508820558870920881145898508483
421,1.7513612034768426948230132761340
422,1.7518392169634058464998808193308
423,1.7523161017386597598016002735177
424,1.7527918631564954773560213037796
425,1.7532665065331765430867542995815
426,1.7537400371476961983850302075297
427,1.7542124602421295840623098424164
428,1.7546837810219809620791205669426
429,1.7551540046565298697537370884549
430,1.7556231362791690688775993571546
431,1.7560911809877417937177322450429
432,1.7565581438448754477553001205529
433,1.7570240298783070873968430642505
434,1.7574888440812117909423661630574
435,1.7579525914125217368351897230352
436,1.7584152767972438925478716922799
437,1.7588769051267744758379114081782
438,1.7593374812592091708130922824198
439,1.7597970100196497804915783837792
440,1.7602554962005083874597009787377
441,1.7607129445618061828773054488397
442,1.7611693598314705278802687005830
443,1.7616247467056298954903814390992
444,1.7620791098489013128212590004585
445,1.7625324538946796346714989551393
446,1.7629847834454196732895069335644
447,1.7634361030729183539256419220615
448,1.7638864173185901148293813936517
449,1.7643357306937433926614522719448
450,1.7647840476798503462334084814640
451,1.7652313727288173221555975977839
452,1.7656777102632489042347462334248
453,1.7661230646767112901957300625772
454,1.7665674403339913851918032048608
455,1.7670108415713552365006177606787
456,1.7674532726968011069390756103286
457,1.7678947379903118832529906269627
458,1.7683352417041032159352705871412
459,1.7687747880628699049675592645586
460,1.7692133812640301744109373037734
461,1.7696510254779656861634675801775
462,1.7700877248482605065428874201769
463,1.7705234834919376300862847197397
464,1.7709583054996912221014891675339
465,1.7713921949361185493585818759290
466,1.7718251558399487302719446981966
467,1.7722571922242675857690016709025
468,1.7726883080767436071729369692775
469,1.7731185073598475185002193533425
470,1.7735477940110729584347839362003
471,1.7739761719431525498166864305219
472,1.7744036450442736550136878397538
473,1.7748302171782891688389077148082
474,1.7752558921849308537969388288039
475,1.7756806738800141412119843123505
476,1.7761045660556469128631579925438
477,1.7765275724804325969577732394734
478,1.7769496968996722552891237882819
479,1.7773709430355645518320794806855
480,1.7777913145874039982534954779991
481,1.7782108152317760281238745897641
482,1.7786294486227524695486730735310
483,1.7790472183920827971698146678633
484,1.7794641281493839842649955988699
485,1.7798801814823304328194755050204
486,1.7802953819568385673769669508331
487,1.7807097331172529424966895007518
488,1.7811232384865284613636861053577
489,1.7815359015664119347393878291437
490,1.7819477258376208444115623846328
491,1.7823587147600214464788006737975
492,1.7827688717728048037351020294207
493,1.7831782002946607232704495421748
494,1.7835867037239506944541571466440
495,1.7839943854388780209558796724833
496,1.7844012487976583924068573766049
497,1.7848072971386865824361120837725
498,1.7852125337807032195725029184577
499,1.7856169620229591296057648837559
500,1.786020585145379381177092419376
501,1.786423406408722781939000431574
502,1.786825429054744281802921675602
503,1.787226656306351752762612307473
504,1.787627091367764990531766851165
505,1.788026737424669786890234397346
506,1.788425597644372804294132940153
507,1.788823675175955102276607646158
508,1.789220973150423957137454266715
509,1.789617494680861207384966058645
510,1.790013242862574179781958359050
511,1.790408220773242428726659203237
512,1.790802431473064190862548813559
513,1.791195878004901172395659494583
514,1.791588563394422347373206755537
515,1.791980490650247143059466113567
516,1.792371662764086224684993158383
517,1.792762082710880956300501496352
518,1.793151753448943325164044413181
519,1.793540677920093113704918497053
520,1.793928859049795178220970442500
521,1.794316299747293631749849995732
522,1.794703002905747209586590953563
523,1.795088971402362256934835236171
