Eigenstate,Potential Energy
1,0.500000000032417600131380683843328371
2,0.64623093786271975422049719505523436
3,0.73633761032654818769144770449591150
4,0.79966527910890230564410315798330903
5,0.8480465775283054836023916211383018
6,0.8870660003405070020603270181395312
7,0.9197208289841851024073147535604817
8,0.9477838498365576444549195458991486
9,0.9723835619040661181735450011515359
10,0.9942802193353882019974361051050486
11,1.0140093922716373603037969418425003
12,1.0319621760174998166193582452968517
13,1.0484327006388292598525840910796555
14,1.0636476638188100458271265406314951
15,1.0777854466721430912580259122879517
16,1.090988918615491639582467286619914
17,1.103374270828986151402993969113015
18,1.115037267262424226999682161579378
19,1.126057767739248607847981415256242
20,1.136503065590483935429522961088339
21,1.146430393736434186723787083677574
22,1.155888835845423015202208566430061
23,1.164920804270318573802582217134941
24,1.173563197448955810067624036849546
25,1.181848316700062968748365863249105
26,1.189804600030849433805488372893684
27,1.197457215099581639852377344695219
28,1.204828542574622973461398027046496
29,1.211938573336385762892265227952192
30,1.218805237319155885244583489059050
31,1.225444677643812019770243772868907
32,1.231871480614561991222665385445644
33,1.238098869843170842898452037425950
34,1.244138871013609012813299711562935
35,1.250002452460853920723412323632959
36,1.255699645704099395142236937548183
37,1.261239649270542820985600579957956
38,1.266630918515501145343261651149810
39,1.271881243646758229365722858153566
40,1.276997817765225250719571845832817
41,1.281987296417245587353190008949907
42,1.286855849898883011818422127589829
43,1.291609209346045680486004514772051
44,1.296252707476204386496334854167915
45,1.300791314709893976297469692306760
46,1.305229671287050547035470089472293
47,1.309572115899760429736794784389939
48,1.313822711285410598979763270551224
49,1.317985267159567605860344313438864
50,1.32206336081378941740840796594120
51,1.32606035565810758314169063828518
52,1.32997941794957193514834895355832
53,1.33382353191579990954560040744732
54,1.33759551345491144570808106430561
55,1.34129802256975492714960610183189
56,1.34493357467425505781853958499002
57,1.34850455089251460244936555349545
58,1.35201320745650473332343018979117
59,1.35546168429542477851762848208684
60,1.35885201289878765901858066039052
61,1.36218612352572307457600762155278
62,1.36546585182468949305629101388054
63,1.36869294492054410903719903244720
64,1.37186906701960745746321551734659
65,1.37499580457782452820855611585195
66,1.37807467107227688834123428693771
67,1.38110711141203802755607008346287
68,1.38409450602060798143626683802168
69,1.38703817461885061647667045388275
70,1.38993937973442869253791232776945
71,1.39279932996113311466982924174662
72,1.39561918298920454386270626944251
73,1.39840004842569252988166055621655
74,1.40114299042207848078671121686867
75,1.40384903012475768263822216973965
76,1.40651914796252602613213504356898
77,1.40915428578391469849144478566949
78,1.41175534885605030076014566423542
79,1.41432320773567103065367493891486
80,1.41685870002199144547543001653068
81,1.41936263200025897813239026149716
82,1.42183578018408392872930781707985
83,1.42427889276393592043127831061269
84,1.42669269096857551656839656300421
85,1.42907787034563041978247679318574
86,1.43143510196700980862649725965287
87,1.43376503356439289622756723427707
88,1.43606829059960441788849113978410
89,1.43834547727430625234147147993093
90,1.44059717748309116463824015202742
91,1.44282395571374320661020274258754
92,1.44502635789814101329300363962680
93,1.44720491221701797865432439073173
94,1.44936012986155036522557239328749
95,1.45149250575452324820916216317851
96,1.45360251923362237251654136781254
97,1.45569063469921565908267302045502
98,1.45775730222881522250776583643856
99,1.45980295816025728988811535970431
100,1.46182802564549107028168009607109
101,1.46383291517673832009964645351387
102,1.46581802508665977499409208910929
103,1.46778374202405670519895454497168
104,1.46973044140652858657124002847091
105,1.47165848785141480582228869031455
106,1.47356823558625755418537209087472
107,1.47546002883994498181042104772347
108,1.47733420221561444562227114588388
109,1.47919108104632708984473773250954
110,1.48103098173446257826765063404521
111,1.48285421207571693613557490366739
112,1.48466107156853702590340767417338
113,1.48645185170976964530996751506795
114,1.48822683627725447846439089305603
115,1.48998630160004968213755550714119
116,1.49173051681693055780253665482110
117,1.49345974412377004696133670379502
118,1.49517423901036875618959811973146
119,1.49687425048726850461464089831836
120,1.49856002130305754430729270635147
121,1.50023178815263733682365971004717
122,1.50188978187690185600026652226596
123,1.50353422765424819417396885570342
124,1.50516534518431956918941961002298
125,1.50678334886435226329371874720035
126,1.50838844795848282772037091684371
127,1.50998084676035130887826200200096
128,1.51156074474931366487154467504574
129,1.51312833674056446783804078098188
130,1.51468381302945260572673938838480
131,1.51622735953025729301674722848271
132,1.51775915790967672267938386456373
133,1.51927938571526991010092768026275
134,1.52078821649908100372500552018689
135,1.52228581993665722883088679378216
136,1.52377236194166794333359453650421
137,1.52524800477631897654835616249185
138,1.52671290715774280987114859042522
139,1.52816722436054305242154565683296
140,1.52961110831565621872580837801012
141,1.53104470770568925802818239910723
142,1.53246816805688321155142858216051
143,1.53388163182784472385809152319211
144,1.53528523849517995482731367926741
145,1.53667912463616125100262812092346
146,1.53806342400854906631554433856542
147,1.53943826762768341922350439868260
148,1.54080378384096021526751272202150
149,1.54216009839979423598066201663198
150,1.54350733452917243500125858102410
151,1.54484561299489345562082432861328
152,1.54617505216858366891235390236238
153,1.54749576809057868210770553932417
154,1.54880787453075421644091828526129
155,1.55011148304738459042452043324194
156,1.55140670304410667489599598534530
157,1.55269364182506036641115540162762
158,1.55397240464827739705907971824217
159,1.5552430947773821535052069890083
160,1.5565058135316708427732629359932
161,1.5577606603346275008582389030527
162,1.5590077327609363052428877638615
163,1.5602471265820450445880975011154
164,1.5614789358103343821634435881567
165,1.5627032527419415132066305624435
166,1.5639201679982887317716078971759
167,1.5651297705663641393561068857586
168,1.5663321478377971841932562833800
169,1.5675273856467740932688624552535
170,1.5687155683068329401515379874181
171,1.5698967786465785430672858132368
172,1.5710710980443550598478723394334
173,1.5722386064619116820547537012005
174,1.5733993824770972717638288274258
175,1.5745535033156179259150670474633
176,1.5757010448818871745510465713876
177,1.5768420817890020734529710949488
178,1.5779766873878743455415176346893
179,1.5791049337955430159594043229755
180,1.5802268919226994872057428720556
181,1.5813426315004477028793508886834
182,1.5824522211063270953875046034188
183,1.5835557281896213668650904907481
184,1.5846532190959773448111315910424
185,1.5857447590913557205370722338233
186,1.5868304123853346390167868665946
187,1.5879102421537899406066899925241
188,1.5889843105609674909208877917114
189,1.5900526787809713299196652748629
190,1.5911154070186832912564235248947
191,1.5921725545301333144018410419694
192,1.5932241796423368317148507478460
193,1.5942703397726175342739748586341
194,1.5953110914474288572170436323664
195,1.5963464903206921169124848406722
196,1.5973765911916649918263391913760
197,1.5984014480223547223696009583449
198,1.5994211139544901916682610424030
199,1.6004356413260657210730903922392
200,1.6014450816874705205714450266654
201,1.6024494858172147704811832497726
202,1.6034489037372657105397400974397
203,1.6044433847280043910714705884938
204,1.6054329773428147010964614192493
205,1.6064177294223146386940919001962
206,1.6073976881082428423199701682289
207,1.6083728998570062537029905577215
208,1.6093434104529031337288038502346
209,1.6103092650210271741387469015760
210,1.6112705080398642006447961384696
211,1.6122271833535888264185251000963
212,1.6131793341840712830776767475921
213,1.6141270031425988070600180518806
214,1.6150702322413265570693617651370
215,1.6160090629044572688203266799922
216,1.6169435359791636015337494968125
217,1.6178736917462571352199659080710
218,1.6187995699306129911943954411506
219,1.6197212097113533487560851712506
220,1.6206386497318023661514374922989
221,1.6215519281092104081074027149431
222,1.6224610824442647772939276009128
223,1.6233661498303805105411498910049
224,1.6242671668627862991035611879179
225,1.6251641696474080895079648026683
226,1.6260571938095539029198729500806
227,1.6269462745024085158688332394738
228,1.6278314464153398125260114933864
229,1.6287127437820239606710563896669
230,1.6295902003883940975787051053641
231,1.6304638495804143150813220123312
232,1.6313337242716893527140259730064
233,1.6321998569509049844323602344795
234,1.6330622796891152449541765812661
235,1.6339210241468696668108860310815
236,1.6347761215811902268617087459137
237,1.6356276028524016223831231823742
238,1.6364754984308166077288362020987
239,1.6373198384032818271249504121975
240,1.6381606524795862970009590936798
241,1.6389979699987368191885314006816
242,1.6398318199351031809210652774721
243,1.6406622309044371723900810723637
244,1.6414892311697671100762079648648
245,1.6423128486471722389479528801598
246,1.6431331109114395320773053731849
247,1.6439500452016042694390064368415
248,1.6447636784263819764291678810729
249,1.6455740371694866905996323219863
250,1.6463811476948459407101574722405
251,1.6471850359517103375060338714729
252,1.6479857275796605741173488177515
253,1.6487832479135169076787895815748
254,1.6495776219881507784232169960467
255,1.6503688745432024456743376491772
256,1.6511570300277047255013232994581
257,1.6519421126046192207755726358003
258,1.6527241461552814876846156489166
259,1.6535031542837619415493689918070
260,1.6542791603211428876453710693857
261,1.6550521873297119900812066688140
262,1.6558222581070769034620353377469
263,1.6565893951901999172211815820955
264,1.6573536208593580627736251782142
265,1.6581149571420272080199557997574
266,1.6588734258166923062337143005168
267,1.6596290484165870118653992872821
268,1.6603818462333626962626207540854
269,1.6611318403206911325062815400132
270,1.6618790514977965727880743838065
271,1.6626235003529265015661463224518
272,1.6633652072467550433438803710725
273,1.6641041923157264674663582264263
274,1.6648404754753359982328477330309
275,1.6655740764233518051847811676263
276,1.6663050146429764512021677916815
277,1.6670333094059552817022567143995
278,1.6677589797756235088684664656310
279,1.6684820446099034933580591405337
280,1.6692025225642443163385391361022
281,1.6699204320945115306600087466323
282,1.6706357914598245874156466062872
283,1.6713486187253451503209463874913
284,1.6720589317650134544308486841225
285,1.6727667482642395164399912068890
286,1.6734720857225452212946947690656
287,1.6741749614561623443927707121361
288,1.6748753926005829111311439629535
289,1.6755733961130665418494415181190
290,1.6762689887751055146816040343939
291,1.6769621871948453872397734909072
292,1.6776530078094640620216582069404
293,1.6783414668875132012997150526352
294,1.6790275805312170283921512718509
295,1.6797113646787306024438827863860
296,1.6803928351063651522628300178074
297,1.6810720074307704009204009302338
298,1.6817488971110831978518914242215
299,1.6824235194510392612968303050694
300,1.6830958896010497816670007339225
301,1.6837660225602432972618984936376
302,1.6844339331784749352461698079157
303,1.6850996361583001910002947442843
304,1.6857631460569168233556372488409
305,1.6864244772880762942226219589216
306,1.6870836441239640158136575705952
307,1.6877406606970455874166933057448
308,1.6883955410018865001498051186087
309,1.6890482988969413989646177243392
310,1.6896989481063132370472822357579
311,1.6903475022214859175218684937516
312,1.6909939747030279355916668746104
313,1.6916383788822684138688672534612
314,1.6922807279629473351694046356973
315,1.6929210350228392924180885364676
316,1.6935593130153521313090532457305
317,1.6941955747710980243290917648927
318,1.6948298329994423273915393484865
319,1.6954621002900273606457145546246
320,1.6960923891142711147230632968790
321,1.6967207118268448013571608521229
322,1.6973470806671253628120936844075
323,1.6979715077606264541607916872592
324,1.6985940051204068755567171860477
325,1.6992145846484582164830123176311
326,1.6998332581370699492087761219784
327,1.7004500372701747922115744940942
328,1.7010649336246715327640490959388
329,1.7016779586717302835470261164224
330,1.7022891237780766049583673498197
331,1.7028984402072559316975112411687
332,1.7035059191208793648533454932635
333,1.7041115715798512080368195804076
334,1.7047154085455764315675215480679
335,1.7053174408811523796327938530000
336,1.7059176793525407784570204012105
337,1.7065161346297229177130732883862
338,1.7071128172878390640140468937191
339,1.7077077378083081709781440960305
340,1.7083009065799339771937333345884
341,1.7088923338999932056479212530017
342,1.7094820299753083617549479853690
343,1.7100700049233047677593239242295
344,1.7106562687730518272079796992911
345,1.7112408314662903388115810231429
346,1.7118237028584433344768452350100
347,1.7124048927196140068551256757293
348,1.7129844107355675381183283946330
349,1.7135622665087003748730780079621
350,1.7141384695589944915416631446357
351,1.7147130293249587298000810017384
352,1.7152859551645568964261798789007
353,1.7158572563561219039239254492914
354,1.7164269420992573683881447445136
355,1.7169950215157270298816577825400
356,1.7175615036503302051025106244889
357,1.7181263974717665113745618339538
358,1.7186897118734891059580238399553
359,1.7192514556745421858143734260951
360,1.7198116376203916857410796873203
361,1.7203702663837409197411707592312
362,1.7209273505653376472249706928919
363,1.7214828986947671596543299602120
364,1.7220369192312364116203605580722
365,1.7225894205643474327207430432041
366,1.7231404110148588979041285704119
367,1.7236898988354387482909020729627
368,1.7242378922114046511991484614206
369,1.7247843992614569319205335696830
370,1.7253294280383996904216559970600
371,1.7258729865298529562808546951539
372,1.7264150826589548383400642670387
373,1.7269557242850536357892291831495
374,1.7274949192043942191635655417422
375,1.7280326751507893728259516369221
376,1.7285689997962875551512372985929
377,1.7291039007518288656263320815569
378,1.7296373855678923862788593525804
379,1.7301694617351367372395215069446
380,1.7307001366850306032049170213923
381,1.7312294177904761062401160596952
382,1.7317573123664221430934026933950
383,1.7322838276704723616879979645217
384,1.7328089709034827404945372311984
385,1.7333327492101523920425514117344
386,1.7338551696796082492253876777710
387,1.7343762393459793837383436694344
388,1.7348959651889648934500959344061
389,1.7354143541343960333940871295731
390,1.7359314130547897794877226802242
391,1.7364471487698941419196241772838
392,1.7369615680472288365827795446613
393,1.7374746776026187880392184756986
394,1.7379864841007190451134041658920
395,1.7384969941555339659860347360295
396,1.7390062143309303236551950541707
397,1.7395141511411439616723778079203
398,1.7400208110512800082866927607340
399,1.7405262004778052147879487903686
400,1.7410303257890367180054492268112
401,1.7415331933056232758817413975919
402,1.7420348093010197213368196580434
403,1.7425351800019574551625576367164
404,1.7430343115889088710365532067789
405,1.7435322101965431781001321801804
406,1.7440288819141797301357013698551
407,1.7445243327862359780627426260198
408,1.7450185688126675489475086945997
409,1.7455115959494033126030786527708
410,1.7460034201087779502594338114329
411,1.7464940471599562853217165667483
412,1.7469834829293529588074473523703
413,1.7474717332010485285230039961604
414,1.7479588037171984158269364367864
415,1.7484447001784389839435603750565
416,1.7489294282442871774624405170308
417,1.7494129935335365715122797775968
418,1.7498954016246469938482045294616
419,1.7503766580561319983669290671010
420,1.7508567683269391719742234888707
421,1.7513357378968272269920444391035
422,1.7518135721867391607113573317995
423,1.7522902765791693182334569564111
424,1.7527658564185279723298742210265
425,1.7532403170114997996825840842257
426,1.7537136636273998603506921069081
427,1.7541859014985245650954929341867
428,1.7546570358204976442571572873049
429,1.7551270717526150305733448666809
430,1.7555960144181815180502732146269
431,1.7560638689048467005440880652003
432,1.7565306402649373395706416406818
433,1.7569963335157814992445831467615
434,1.7574609536400355462891371940624
435,1.7579245055860018387938754984788
436,1.7583869942679450047153951281532
437,1.7588484245664049714932455623535
438,1.7593088013285057288499992450492
439,1.7597681293682605060827693521835
440,1.7602264134668744350633716552378
441,1.7606836583730418588037389984040
442,1.7611398688032418492360150368891
443,1.7615950494420315819066454090195
444,1.7620492049423321869582610655952
445,1.7625023399257164070624746801578
446,1.7629544589826890866549524273478
447,1.7634055666729676616457924118260
448,1.7638556675257558678095433130720
449,1.7643047660400185083628219827571
450,1.7647528666847494331742990251881
451,1.7651999738992402327042934383539
452,1.7656460920933424880262923748581
453,1.7660912256477293200050879321323
454,1.7665353789141526265838459232973
455,1.7669785562156996320571080673958
456,1.7674207618470440453308178935615
457,1.7678620000746965228815029423212
458,1.7683022751372508323145303323680
459,1.7687415912456282304496895991074
460,1.7691799525833196982822713144433
461,1.7696173633066238825479780629507
462,1.7700538275448839569465905628150
463,1.7704893494007220068004724950596
464,1.7709239329502690980575923301863
465,1.7713575822433949993809515444050
466,1.7717903013039346880253464555747
467,1.7722220941299109200236884246431
468,1.7726529646937578803292713128267
469,1.7730829169425383896171057341348
470,1.7735119547981621922905324174833
471,1.7739400821575995928065812174674
472,1.7743673028930947379388018200941
473,1.7747936208523738958863195423852
474,1.7752190398588562362304596158008
475,1.7756435637118560335000511391495
476,1.7760671961867888081594032263805
477,1.7764899410353717380223026166872
478,1.7769118019858230160883330588493
479,1.7773327827430590441929334494504
480,1.7777528869888898570600177170813
481,1.7781721183822113276407260204022
482,1.7785904805591977225320828935148
483,1.7790079771334899874812280516562
484,1.7794246116963825827367245796031
485,1.7798403878170103451321334284697
486,1.7802553090425299617018537601190
487,1.7806693788983029036189799482204
488,1.7810826008880744169503470297133
489,1.7814949784941517983347152269148
490,1.7819065151775798186368890631915
491,1.7823172143783154287854022526591
492,1.7827270795154003359037173201767
493,1.7831361139871314246679749303076
494,1.7835443211712301178504217031932
495,1.7839517044250088684646246156923
496,1.7843582670855380278530257871971
497,1.7847640124698087751532421693308
498,1.7851689438748960533120679288597
499,1.7855730645781190088833666640436
500,1.785976377837201065992426540980
501,1.786378886890425380390715997774
502,1.786780594956793128660965930441
503,1.787181505236176100578402442319
504,1.787581620909471438339268728225
505,1.787980945138751369998014438229
506,1.788379481067413667068351839107
507,1.788777231820330674183491212384
508,1.789174200503996550640837126485
509,1.789570390206670954582115346839
510,1.789965803998525222906016490629
511,1.790360444931784277849200876157
512,1.790754316040868160288384943886
513,1.791147420342531805360035945939
514,1.791539760836003736718877436033
515,1.791931340503124053595926012698
516,1.792322162308479920904979157483
517,1.792712229199539637054000093038
518,1.793101544106787064763810630570
519,1.793490109943853206757517157989
520,1.793877929607647783244827428164
521,1.794265005978487606353295336472
522,1.794651341920226027632172141230
523,1.795036940280379895711432371302
