Eigenstate,Potential Energy
1,0.500000000000479907360020057313126595
2,0.64623093765424745348614182658936991
3,0.73633760971417905681203562825459639
4,0.79966527783341141166003131661108675
5,0.8480465753189032541678516349152927
6,0.8870659969216704420238635332151008
7,0.9197208240781761856050657512142326
8,0.9477838431644748877619169924537253
9,0.9723835531863347590574092066312865
10,0.9942802082920100857896631369159156
11,1.0140093786223277104330899881167357
12,1.0319621594817663627359672953578332
13,1.0484326809360199859709336098815902
14,1.0636476406681428798272355593883090
15,1.0777854197927247005285638791402654
16,1.090988887726329384245307880436611
17,1.103374235648995587186325592050490
18,1.115037227510433624137701762884597
19,1.126057723134001414986489243488469
20,1.136503015850639794394454684960819
21,1.146430338580568903589699748000590
22,1.155888774992027765290748511557060
23,1.164920737437798534688031843998413
24,1.173563124355628360807556571745585
25,1.181848237064155555448159793209035
26,1.189804513570497175142261023869948
27,1.197457121532824727467739453749116
28,1.204828441619403908700038724014806
29,1.211938464710546461585572330056797
30,1.218805120740434675027471660737327
31,1.225444552829840549036664722115629
32,1.231871347282862064762170483574748
33,1.238098727711151196157054981618843
34,1.244138719798562034335034606693159
35,1.250002291879952330473972215282667
36,1.255699475474392884962185994449753
37,1.261239469108954662271970772382030
38,1.266630728138824768144105411876124
39,1.271881042771653776339363293774743
40,1.276997606108216108818951880882177
41,1.281987073694714899615655291229839
42,1.286855615827070171249113867464730
43,1.291608963641042807700950726987763
44,1.296252449853952792525406465280593
45,1.300791044886180611726651634301854
46,1.305229388977504438483815222441155
47,1.309571820819849104509277937738587
48,1.313822403150436498607471327540261
49,1.317984945684664489129838876933963
50,1.32206302571391875338911733613153
51,1.32606000664805493464093999373490
52,1.32997905474394333295597563381625
53,1.33382315422901821777204278287966
54,1.33759512100121271846980896260547
55,1.34129761506318475681262479931450
56,1.34493315182866491497327880790846
57,1.34850411242155816775782877241096
58,1.35201275307363422135101599804323
59,1.35546121371388725363741998702739
60,1.35885152583162134345409247605781
61,1.36218561968575364862933271535292
62,1.36546533092452638755170515889585
63,1.36869240667257678999544978245017
64,1.37186851113600170300856089931995
65,1.37499523077051869769880504647958
66,1.37807407905297818370068663455765
67,1.38110650089221874678189454962136
68,1.38409387671150176424053035560851
69,1.38703752623144868201862181778654
70,1.38993871197947606919459541260256
71,1.39279864254912486178673745855835
72,1.39561847563038196542093455771646
73,1.39839932083003938001281201442429
74,1.40114224229931716106240159187431
75,1.40384826118434543105677151901237
76,1.40651835791365109772137314837910
77,1.40915347433549253744297684242374
78,1.41175451571671970400726507980692
79,1.41432235261379030280214771660319
80,1.41685782262563454499373499761556
81,1.41936173203721165470535788807142
82,1.42183485736183985167682367267386
83,1.42427794678969279809154005540806
84,1.42669172154923120654313710386541
85,1.42907687718777902993964943341487
86,1.43143408477693778875417522106817
87,1.43376399204807512023101650162987
88,1.43606722446270025642082390984100
89,1.43834438622215563575677502447428
90,1.44059606122071063615460312429595
91,1.44282281394582196556865066432195
92,1.44502519032903694839708872480892
93,1.44720371855075369107379333751214
94,1.44935890980180918144635075979996
95,1.45149125900464522251064676176813
96,1.45360124549660027895619478805413
97,1.45568933367769097286659014244894
98,1.45775597362507409062505868291644
99,1.45980160167622649088567070555264
100,1.46182664098273396305502139679604
101,1.46383150203645078157449062623676
102,1.46581658316966612657227585832606
103,1.46778227103080562784151203965670
104,1.46972894103708902439022655904770
105,1.47165695780547185805228956928423
106,1.47356667556310835540453668548611
107,1.47545843853849457027999086123014
108,1.47733258133437161961271078037514
109,1.47918942928340025181556255798051
110,1.48102929878755556676729334048699
111,1.48285249764212484528663807699642
112,1.48465932534514201233778852839947
113,1.48645007339303672241750687449344
114,1.48822502556322729781775198607816
115,1.48998445818434630195517963513528
116,1.49172864039473919831065575459207
117,1.49345783438984483251514832530477
118,1.49517229565902544401276158786481
119,1.49687227321238020001548517837656
120,1.49855800979805040222911600718863
121,1.50022974211048624958568565933123
122,1.50188770099012612708491335636821
123,1.50353211161490719791518207268719
124,1.50516319368400839621592636967777
125,1.50678116159419735158015023080766
126,1.50838622460913757909830001564425
127,1.50997858702199169085827709858086
128,1.51155844831163379762648730354846
129,1.51312600329277219619676552836977
130,1.51468144226026505602669510703973
131,1.51622495112789641466278096041857
132,1.51775671156186481425508667208588
133,1.51927690110922512987822375061226
134,1.52078569332151286441631404170417
135,1.52228325787376207642739619993691
136,1.52376976067912441987237461848297
137,1.52524536399928346664972156570020
138,1.52671022655084487088689463857883
139,1.52816450360788082803362382821942
140,1.52960834710079183583393471672122
141,1.53104190571164420676402429060040
142,1.53246532496613370825571616881847
143,1.53387874732231705685619334735558
144,1.53528231225624581283755960721083
145,1.53667615634463303401083390001791
146,1.53806041334467517874785561971617
147,1.53943521427114354524873625083323
148,1.54080068747086057605916780907293
149,1.54215695869466282876738303086743
150,1.54350415116695425373378562768680
151,1.54484238565294569308193797463738
152,1.54617178052367090009551242848530
153,1.54749245181886802868870459686883
154,1.54880451330781049216592025222143
155,1.55010807654816542723651767068039
156,1.55140325094295762962042989960896
157,1.55269014379571000782060309812747
158,1.55396886036383237313537259464911
159,1.5552395039103222387162407593048
160,1.5565021757538439651805516439783
161,1.5577569753172447488699612484450
162,1.5590040001745669138258623772711
163,1.5602433460966113607511147218737
164,1.5614751070951068095227493892486
165,1.5626993754655334354431206933101
166,1.5639162418286514147882811795862
167,1.5651257951707816119426949631084
168,1.5663281228828810970035463517037
169,1.5675233107984585559153045911002
170,1.5687114432303693362197361546310
171,1.5698926030065303228522009931583
172,1.5710668715045925106116939877364
173,1.5722343286856066756053381976165
174,1.5733950531267179891508916988241
175,1.5745491220529235590400526882678
176,1.5756966113679226044850644628729
177,1.5768375956840925252557487858685
178,1.5779721483516200193728077034582
179,1.5791003414868136942728133097375
180,1.5802222459996291178133582290098
181,1.5813379316204289576740974438780
182,1.5824474669260059045085820038858
183,1.5835509193648914280902074601638
184,1.5846483552819746079578222868732
185,1.5857398399424528466534548470865
186,1.5868254375551354341410503087683
187,1.5879052112951237638724039848692
188,1.5889792233258836367839357713869
189,1.5900475348207333842807758306960
190,1.5911102059837634612515822046853
191,1.5921672960702067316313384645049
192,1.5932188634062758286797117860482
193,1.5942649654084858937870854239802
194,1.5953056586024760345542132457449
195,1.5963409986413474344672375793920
196,1.5973710403235318060301908289491
197,1.5983958376102045626377985661442
198,1.5994154436422568711293219090953
199,1.6004299107568394188382885021541
200,1.6014392905034918352987965893091
201,1.6024436336598687449866630580208
202,1.6034429902470758272060499196013
203,1.6044374095446265378034048623960
204,1.6054269401050311075694116852908
205,1.6064116297680277826407792384588
206,1.6073915256744693255979417706592
207,1.6083666742798706478838690938513
208,1.6093371213676317949479753444375
209,1.6103029120619420269422130545584
210,1.6112640908403764905678243003569
211,1.6122207015461928410286370825289
212,1.6131727874003380412125046588691
213,1.6141203910131697159880238013239
214,1.6150635543959070372998492490020
215,1.6160023189718103462864178975496
216,1.6169367255871034668701351852742
217,1.6178668145216426698548593948423
218,1.6187926254993412599729961955684
219,1.6197141976983530588103166621839
220,1.6206315697610272917287034891386
221,1.6215447798036327810685987397344
222,1.6224538654258686429886271564287
223,1.6233588637201550487655181260046
224,1.6242598112807191098442418971919
225,1.6251567442124784431724280988586
226,1.6260496981397259547516673317176
227,1.6269387082146244842434791495302
228,1.6278238091255131208206904882041
229,1.6287050351050323423989654771780
230,1.6295824199380726644761023599649
231,1.6304559969695485878329435820053
232,1.6313257991120082539997019153573
233,1.6321918588530737939752682109913
234,1.6330542082627285162481670248018
235,1.6339128790004441052019806953884
236,1.6347679023221575286560176227598
237,1.6356193090871012746502848368459
238,1.6364671297644886484679998289648
239,1.6373113944400595654569472086444
240,1.6381521328224889930475420382080
241,1.6389893742496623232968493426112
242,1.6398231476948205318887764161225
243,1.6406534817725791543428627470253
244,1.6414804047448227676473921734980
245,1.6423039445264793504063159645634
246,1.6431241286911770400461197982171
247,1.6439409844767846688467399498642
248,1.6447545387908436593286665638508
249,1.6455648182158862474899096477984
250,1.6463718490146504179912778308104
251,1.6471756571351894506947296437189
252,1.6479762682158788764476353156573
253,1.6487737075903259137086804578237
254,1.6495680002921810422650558764643
255,1.6503591710598555934632991173567
256,1.6511472443411454417128021299497
257,1.6519322442977671879992470095747
258,1.6527141948098032794591133322333
259,1.6534931194800628678582829108316
260,1.6542690416383587926715909985952
261,1.6550419843457010018131031586706
262,1.6558119703984111347412715318261
263,1.6565790223321571178185551412985
264,1.6573431624259132220753921769854
265,1.6581044127058441079034246003190
266,1.6588627949491150237073484273292
267,1.6596183306876313710444779477257
268,1.6603710412117076692478378735323
269,1.6611209475736701887289776846094
270,1.6618680705913889763814751689070
271,1.6626124308517485563183409878201
272,1.6633540487140512847838082362884
273,1.6640929443133608016306373870116
274,1.6648291375637827866565570438352
275,1.6655626481616868956557055041325
276,1.6662934955888681538131717663645
277,1.6670216991156552897327445417566
278,1.6677472778039577640213842439065
279,1.6684702505102629948745466618802
280,1.6691906358885758735079473922792
281,1.6699084523933084582384932150766
282,1.6706237182821173434622333004937
283,1.6713364516186919159553082372809
284,1.6720466702754906550125790933821
285,1.6727543919364322836639011051493
286,1.6734596340995377956931116901641
287,1.6741624140795284177300036007449
288,1.6748627490103759081708785865978
289,1.6755606558478098409712977783119
290,1.6762561513717826068175620404523
291,1.6769492521888899725967423630362
292,1.6776399747347500840508955870517
293,1.6783283352763448173696631135977
294,1.6790143499143185166146289727241
295,1.6796980345852362041001991194378
296,1.6803794050638088492695889100748
297,1.6810584769650756277701700762861
298,1.6817352657465524874586995271590
299,1.6824097867103438241706345133419
300,1.6830820550052190178358540503038
301,1.6837520856286542403549984463111
302,1.6844198934288416281456728078416
303,1.6850854931066629924636652763082
304,1.6857488992176316450047958253997
305,1.6864101261738037672901182894097
306,1.6870691882456585870307175526464
307,1.6877260995639445434213698824868
308,1.6883808741214989197880253428506
309,1.6890335257750370328504815817164
310,1.6896840682469113137429931805307
311,1.6903325151268438756917220980100
312,1.6909788798736300814771572187457
313,1.6916231758168145034271425152727
314,1.6922654161583410802097121486672
315,1.6929056139741767900648261761418
316,1.6935437822159102161133457185659
317,1.6941799337123225423440964770452
318,1.6948140811709363315200783247899
319,1.6954462371795392265618625352791
320,1.6960764142076825766625097365260
321,1.6967046246081589070644383846122
322,1.6973308806184543469248418456138
323,1.6979551943621795293053655270375
324,1.6985775778504779404211244126511
325,1.6991980429834134801263576016288
326,1.6998166015513354708588507440094
327,1.7004332652362239357950128176342
328,1.7010480456130123354056063954713
329,1.7016609541508927372668181333629
330,1.7022720022145998507884187789194
331,1.7028812010656753654310256392159
332,1.7034885618637136536322826526377
333,1.7040940956675892169749715437173
334,1.7046978134366640595985670233392
335,1.7052997260319793037644137687979
336,1.7058998442174271056039052744578
337,1.7064981786609057432729695491163
338,1.7070947399354589363428072386387
339,1.7076895385203954609113210297593
340,1.7082825848023951517528745646704
341,1.7088738890765970050614645381438
342,1.7094634615476718789141870928218
343,1.7100513123308794292216228172449
344,1.7106374514531092748494771546423
345,1.7112218888539082112228963004054
346,1.7118046343864909471857086607198
347,1.7123856978187379304504897622606
348,1.7129650888341770733406183130361
349,1.7135428170329529237262792969383
350,1.7141188919327808234719220713520
351,1.7146933229698881419767976096092
352,1.7152661194999422671508012241306
353,1.7158372907989646381814555144966
354,1.7164068460642322345462946128903
355,1.7169747944151668865321897721236
356,1.7175411448942106170285277691768
357,1.7181059064676902536167867206960
358,1.7186690880266705549425379658263
359,1.7192306983877915964932232196202
360,1.7197907462940993536857090345273
361,1.7203492404158612271181903086820
362,1.7209061893513729915715842485624
363,1.7214616016277517643595857397583
364,1.7220154857017200170071589157845
365,1.7225678499603788666107177064862
366,1.7231187027219695245364852724982
367,1.7236680522366257944541409722626
368,1.7242159066871144084216278160910
369,1.7247622741895678335541994702432
370,1.7253071627942052624404536388485
371,1.7258505804860446406024901375131
372,1.7263925351856046874672247381522
373,1.7269330347495968775529228612708
374,1.7274720869716116903386188397411
375,1.7280096995827898203746872338559
376,1.7285458802524898038387485306301
377,1.7290806365889438507356343985302
378,1.7296139761399050501420392125923
379,1.7301459063932877882855946582641
380,1.7306764347777981362118101866500
381,1.7312055686635570824630178979888
382,1.7317333153627137289278631977171
383,1.7322596821300531245108825337281
384,1.7327846761635937003113578545994
385,1.7333083046051779275537959272091
386,1.7338305745410568569104657812420
387,1.7343514930024642885390042101796
388,1.7348710669661845096197261367025
389,1.7353893033551142740640518932710
390,1.7359062090388162134845970049792
391,1.7364217908340639963520156561350
392,1.7369360555053828436988054523929
393,1.7374490097655828748399001326772
394,1.7379606602762838641894155091580
395,1.7384710136484342660285209932314
396,1.7389800764428241580738225887483
397,1.7394878551705917337358939475963
398,1.7399943562937233511838511251075
399,1.7404995862255457049881300841309
400,1.7410035513312144202800717123931
401,1.7415062579281951183288268386237
402,1.7420077122867376987324136541413
403,1.7425079206303466589435271998212
404,1.7430068891362453441998758622335
405,1.7435046239358315932844732289808
406,1.7440011311151308891305575945524
407,1.7444964167152441309710677253962
408,1.7449904867327875312067181384164
409,1.7454833471203274980492970571160
410,1.7459750037868130183980723510588
411,1.7464654625979998009471651288966
412,1.7469547293768697620924354352747
413,1.7474428099040469336769307011674
414,1.7479297099182062163997659923801
415,1.7484154351164792628301909124727
416,1.7488999911548539196392605426997
417,1.7493833836485700775150608967875
418,1.7498656181725090919767689627665
419,1.7503467002615810535784493330777
420,1.7508266354111048894037092406277
421,1.7513054290771852480135701150655
422,1.7517830866770854494290235715645
423,1.7522596135895943362672246228453
424,1.7527350151553906397341694464847
425,1.7532092966774012398124331786666
426,1.7536824634211569264618990399797
427,1.7541545206151431464408968072567
428,1.7546254734511457494126840682402
429,1.7550953270845956457020835553510
430,1.7555640866349052377843962007485
431,1.7560317571858041291370453318978
432,1.7564983437856712599437422845640
433,1.7569638514478588075237339128741
434,1.7574282851510189493980466858693
435,1.7578916498394213126415972808222
436,1.7583539504232690104850062178414
437,1.7588151917790114275100144834163
438,1.7592753787496527354749268661896
439,1.7597345161450568210476634448020
440,1.7601926087422496966319006690505
441,1.7606496612857165541105118633721
442,1.7611056784876970251239735489610
443,1.7615606650284782955497403087870
444,1.7620146255566806935238992996393
445,1.7624675646895450816332003523039
446,1.7629194870132130775961402609612
447,1.7633703970830072725703259801361
448,1.7638202994237046652554240653045
449,1.7642691985298111522644243917714
450,1.7647170988658292271712760609495
451,1.7651640048665263912958945362108
452,1.7656099209371971175410714163448
453,1.7660548514539241103184191004654
454,1.7664988007638352504780133344949
455,1.7669417731853598490780985144360
456,1.7673837730084795069587834059631
457,1.7678248044949782757900834936231
458,1.7682648718786885164542084568831
459,1.7687039793657349686497895365269
460,1.7691421311347766740232947584744
461,1.7695793313372446025144416694690
462,1.7700155840975781949274352584656
463,1.7704508935134594254596999239928
464,1.7708852636560425450550354443192
465,1.7713186985701834742764923194845
466,1.7717512022746659763554829239687
467,1.7721827787624238908927927549396
468,1.7726134320007644438107315783864
469,1.7730431659315851102118943589469
470,1.7734719844715915546429106631891
471,1.7738998915125109158273301067600
472,1.7743268909213047334363175966064
473,1.7747529865403768677558946946338
474,1.7751781821877839162001670327155
475,1.7756024816574370493806785614823
476,1.7760258887193077804918151337775
477,1.7764484071196280009627744476284
478,1.7768700405810889583175613507658
479,1.7772907928030380655799320934727
480,1.7777106674616739367556332975380
481,1.7781296682102381992179194908999
482,1.7785477986792076517335104072247
483,1.7789650624764821480747974616622
484,1.7793814631875710259218504187424
485,1.7797970043757795578771272502092
486,1.7802116895823900093330010812807
487,1.7806255223268441519189769062784
488,1.7810385061069218289600060224624
489,1.7814506443989188009886975038064
490,1.7818619406578217342980327950940
491,1.7822723983174824666763756948997
492,1.7826820207907901383679118098532
493,1.7830908114698411631218803189955
494,1.7834987737261081332220465573649
495,1.7839059109106058508416596848526
496,1.7843122263540577299915405697429
497,1.7847177233670582544266258914319
498,1.7851224052402354366059979245779
499,1.7855262752444107748664260262199
500,1.785929336630758839118025718238
501,1.786331592630962230905989127337
502,1.786733046457369372822303896398
503,1.787133701303146595191239367763
504,1.787533560342432363661514859053
505,1.787932626730486494960713180810
506,1.788330903603840090686326965684
507,1.788728394080444036943170205500
508,1.789125101259815709564887120645
509,1.789521028223182115583926571174
510,1.789916178033625523958414725388
511,1.790310553736224816399623379316
512,1.790704158358196458262616780818
513,1.791096994909033705001550285696
514,1.791489066380644720417191561806
515,1.791880375747489980759321514998
516,1.792270925966717174836778042414
517,1.792660719978294674690156746619
518,1.793049760705145362029190104098
519,1.793438051053277592195107375276
520,1.793825593911916152467759614172
521,1.794212392153630009762538692258
522,1.794598448634461123734758671339
523,1.794983766194050762265375590592
