Eigenstate,Potential Energy
1,0.500000000036145419171042014336860526
2,0.64623093788705303831075894991634856
3,0.73633761039802535619399353112452387
4,0.79966527925778139982517497039428443
5,0.8480465777861952333812866991599287
6,0.8870660007395697663919655242334117
7,0.9197208295568432097795855883597100
8,0.9477838506153709429663271182481968
9,0.9723835629216750529475477278616210
10,0.9942802206244849398834674597949924
11,1.0140093938649501179918694213505752
12,1.0319621779477839170453264160425993
13,1.0484327029388618515417055668869896
14,1.0636476665213869302966716918032303
15,1.0777854498100768222054907171492509
16,1.090988922221610420982054907640985
17,1.103374274936133255318891264394178
18,1.115037271903457759973421203729694
19,1.126057772947041517443842023535428
20,1.136503071397924186237746345864170
21,1.146430400176425058515070448951860
22,1.155888842950883490845061451311738
23,1.164920812074183794307775000736604
24,1.173563205984177580644097349473565
25,1.181848325999610304203289954789998
26,1.189804610127709134712449237651398
27,1.197457226026758893096352585081046
28,1.204828554365141972337132057410340
29,1.211938586023290343074019453880524
30,1.218805250935510173787000724708030
31,1.225444692222701094928416662876079
32,1.231871496189092551353819547575446
33,1.238098886446471883069456307615322
34,1.244138888678832508016881126188690
35,1.250002471221175514822533601204401
36,1.255699665592719094831857632100113
37,1.261239670320685694195182741501846
38,1.266630940760418023610158902455382
39,1.271881267119726413795179760358526
40,1.276997842499549221216161656860894
41,1.281987322446257714864601547143883
42,1.286855877255944273378356494425440
43,1.291609238064546376880594641114305
44,1.296252737589564862409607999456795
45,1.300791346251565342817205446944710
46,1.305229704290515406422358029745054
47,1.309572150398533602377862366589430
48,1.313822747313039852462261893396272
49,1.317985304749634386115143504754646
50,1.32206339999990958188288378239239
51,1.32606039647393213597141052836115
52,1.32997946042878776430483466357165
53,1.33382357609213052594430719277175
54,1.33759555936211772426664322944392
55,1.34129807024163584979152430596151
56,1.34493362414464845842193111349072
57,1.34850460219529791374427342326995
58,1.35201326062559573574459213637896
59,1.35546173936478235102256749963395
60,1.35885206990241253188352407773947
61,1.36218618249765858418444153409630
62,1.36546591279902233869703367368060
63,1.36869300793140511173069936619635
64,1.37186913210117232083641488642547
65,1.37499587176431460144012849230365
66,1.37807474039795993120033711886937
67,1.38110718291122897755891890988720
68,1.38409457972766972314593739459800
69,1.38703825056819475297251261310621
70,1.38993945796051631908184568466307
71,1.39279941049847559459763269040260
72,1.39561926587236428672913719342894
73,1.39840013368928377188897095648191
74,1.40114307810076806752674858979982
75,1.40384912025326585417891967386661
76,1.40651924057562720447975067410874
77,1.40915438091643827746043380831611
78,1.41175544654288143828305842627185
79,1.41432330801175144356393378517992
80,1.41685880292232020679627926656988
81,1.41936273755989331690574673138004
82,1.42183588843814003241864627962698
83,1.42427900374758973993306439361877
84,1.42669280471706357386695746469696
85,1.42907798689425061828358577137304
86,1.43143522135112224620524596243562
87,1.43376515581942068102650338155615
88,1.43606841576103448690227760928525
89,1.43834560537769019282469008212513
90,1.44059730856404603837324681757477
91,1.44282408980795237707228189237393
92,1.44502649504135497575035912238604
93,1.44720505244505519324075642310367
94,1.44936027321029809302399505563876
95,1.45149265225993839038439708684068
96,1.45360266893173231253614365090667
97,1.45569078762611910806482158424277
98,1.45775745842068306773554220662054
99,1.45980311765333344652981525318841
100,1.46182818847609333635704519487742
101,1.46383308138125923473224228087246
102,1.46581819470156747999032186772901
103,1.46778391508589580999450301310459
104,1.46973061795192103658603331032913
105,1.47165866791706075426534670575791
106,1.47356841920893623735121922416178
107,1.47546021605651559790904527330467
108,1.47733439306301703718487671665970
109,1.47919127556158342974787723288220
110,1.48103117995467705941860383414055
111,1.48285441403807746486214617741375
112,1.48466127731031591909163460020537
113,1.48645206126832453133351932446701
114,1.48822704969002920194977130215313
115,1.48998651890457521260952448068352
116,1.49173073805082590225449166537169
117,1.49345996932474316639569062158936
118,1.49517446821621748617355863238840
119,1.49687448373588147989708238664892
120,1.49856025863241512754274994943415
121,1.50023202960081255144982317935073
122,1.50189002748206132331567664169891
123,1.50353447745465307466296456469757
124,1.50516559921832650814170730178802
125,1.50678360717041434076629931385110
126,1.50838871057515051288994239260695
127,1.50998111372627341883250082959877
128,1.51156101610323832788804627910860
129,1.51312861252134009120015765010139
130,1.51468409327602884812577409850687
131,1.51622764428168604159039453293388
132,1.51775944720511307473677375580454
133,1.51927967959397315958482146256842
134,1.52078851500041563246222199395906
135,1.52228612310009390262241149121526
136,1.52377266980678451293613012080311
137,1.52524831738280148359957282740810
138,1.52671322454538649781120859368917
139,1.52816754656925338246395408362959
140,1.52961143538544989093099374899201
141,1.53104503967669523753366194801683
142,1.53246850496934376001280791323410
143,1.53388197372211643615560458708457
144,1.53528558541173480109302313933043
145,1.53667947661558762402383891213237
146,1.53806378109155283437038788470174
147,1.53943862985508898440518196308640
148,1.54080415125371157735408037590023
149,1.54216047103895606190766671542638
150,1.54350771243593113399505723580137
151,1.54484599621055826005087881303170
152,1.54617544073458772092118355199807
153,1.54749616204848012607778698455799
154,1.54880827392223729735818024753038
155,1.55011188791426075819868892410768
156,1.55140711342831569469841178054198
157,1.55269405776867143509129349198757
158,1.55397282619349026570145673230535
159,1.5552435219665282561888668251278
160,1.5565062464072144315965829634967
161,1.5577610989391667872922878998851
162,1.5590081771372046078771423211531
163,1.5602475767729119433328062356275
164,1.5614793918588068789734876405615
165,1.5627037146911651993923261525810
166,1.5639206358915489619623696952505
167,1.5651302444470872121835098066499
168,1.5663326277495515297606289379161
169,1.5675278716332714674750329857701
170,1.5687160604119296259369808625967
171,1.5698972769142765586515464929486
172,1.5710716025188033740276864516306
173,1.5722391171874074366328885928336
174,1.5733998994980870111793064156398
175,1.5745540266766988341460361562499
176,1.5757015746278083193622033456565
177,1.5768426179646656580600441917307
178,1.5779772300383369677659748527796
179,1.5791054829660169349471813837134
180,1.5802274476585538977844791266361
181,1.5813431938472100176292393498034
182,1.5824527901096842345015757911065
183,1.5835563038954210558753620322598
184,1.5846538015502294202578089170066
185,1.5857453483402334436586893483688
186,1.5868310084751760175397463219168
187,1.5879108451310990587135544758998
188,1.5889849204724158474773899959763
189,1.5900532956733991850411144399463
190,1.5911160309391010212949469184783
191,1.5921731855257227754367358694594
192,1.5932248177604527316288752307048
193,1.5942709850607888134994001221841
194,1.5953117439533600782358174607556
195,1.5963471500922648625958687755010
196,1.5973772582769392727000244638021
197,1.5984021224695703928911521118686
198,1.5994217958120683756045030755584
199,1.6004363306426102460660033843707
200,1.6014457785117693619817644723463
201,1.6024501901982415045998740629547
202,1.6034496157241809772583882572851
203,1.6044441043701573661032950509833
204,1.6054337046897445778408028262286
205,1.6064184645237521198378562586119
206,1.6073984310141116412705608632289
207,1.6083736506174246059480289437063
208,1.6093441691181853182189939114347
209,1.6103100316416850447910362453780
210,1.6112712826666087280639959954582
211,1.6122279660373316499364032596467
212,1.6131801249759262732096027298039
213,1.6141278020938836384801284197114
214,1.6150710394035642922062017388885
215,1.6160098783293779521759260851793
216,1.6169443597187058648301179766441
217,1.6178745238525698134778883912920
218,1.6188004104560567498505970185971
219,1.6197220587085023219257499193177
220,1.6206395072534458061441544996235
221,1.6215527942083543463056378736769
222,1.6224619571741336965042975047893
223,1.6233670332444190289297266976444
224,1.6242680590146608658275650137156
225,1.6251650705910086921574698678373
226,1.6260581035989957868840036915446
227,1.6269471931920339157423499969371
228,1.6278323740597196956730702473372
229,1.6287136804359597830643462458306
230,1.6295911461069195720331669225277
231,1.6304648044187971920028926441001
232,1.6313346882854332134851365514387
233,1.6322008301957510475570486103254
234,1.6330632622210441850869132847238
235,1.6339220160221034467945206269297
236,1.6347771228561939429013284256386
237,1.6356286135838853624834758826673
238,1.6364765186757373235248928046503
239,1.6373208682188452192358137501649
240,1.6381616919232487140393299643204
241,1.6389990191282071705587702665816
242,1.6398328788083448635404965254751
243,1.6406632995796700114695702650695
244,1.6414903097054693140973112058980
245,1.6423139371020823689754605613299
246,1.6431342093445584855474874362712
247,1.6439511536721972785651184624103
248,1.6447647969939806213674007419079
249,1.6455751658938909275201830248983
250,1.6463822866361261449195229070507
251,1.6471861851702093617681817448136
252,1.6479868871359958223229429439843
253,1.6487844178685824240132796178567
254,1.6495788024031193521860979301340
255,1.6503700654795277319034710635525
256,1.6511582315471233815579203251634
257,1.6519433247691530590472117741252
258,1.6527253690272396445647080992162
259,1.6535043879257430628540663166924
260,1.6542804047960373306298151932514
261,1.6550534427007040422193396288756
262,1.6558235244376470181554703013848
263,1.6565906725441269666046715400442
264,1.6573549093007216077863616988024
265,1.6581162567352097859137107855489
266,1.6588747366263817356909806351327
267,1.6596303705077787159018012506091
268,1.6603831796713620430906035965375
269,1.6611331851711157945384736790658
270,1.6618804078265789039607837691373
271,1.6626248682263159331653699812323
272,1.6633665867313204985181382800373
273,1.6641055834783587946129069831872
274,1.6648418783832504234454065273309
275,1.6655754911440904039535067267016
276,1.6663064412444106395581133717026
277,1.6670347479562883270011674975194
278,1.6677604303433930604104726216837
279,1.6684835072639841330423672686711
280,1.6692039973738501295539810089566
281,1.6699219191291986976148947513568
282,1.6706372907894939951125177052473
283,1.6713501304202450253838718609173
284,1.6720604558957420169954654270607
285,1.6727682849017476553186065499767
286,1.6734736349381391906313419971288
287,1.6741765233215064820253839054007
288,1.6748769671877023788803593687078
289,1.6755749834943500879560607171850
290,1.6762705890233082586173684777260
291,1.6769638003830916271183223608847
292,1.6776546340112501048391780060727
293,1.6783431061767102162375970672200
294,1.6790292329820739234162668171267
295,1.6797130303658769244379964200795
296,1.6803945141048140109360678841816
297,1.6810736998159214167315909913388
298,1.6817506029587254741963703599564
299,1.6824252388373543812040043307589
300,1.6830976226026148292597720470414
301,1.6837677692540339042318723317752
302,1.6844356936418683526017330419344
303,1.6851014104690783863471249618524
304,1.6857649342932696039725502185886
305,1.6864262795286044561985948861824
306,1.6870854604476825195146578973050
307,1.6877424911833867595545597450372
308,1.6883973857307032627278697312357
309,1.6890501579485105253787357981898
310,1.6897008215613386356232266740472
311,1.6903493901611019427741653891903
312,1.6909958772088027274916016460932
313,1.6916402960362072654132331679307
314,1.6922826598474960885444008368593
315,1.6929229817208877640569458612586
316,1.6935612746102375661446813688153
317,1.6941975513466085795469318891588
318,1.6948318246398205859915070805825
319,1.6954641070799738751254491334615
320,1.6960944111389479811985705179442
321,1.6967227491718792644405271559311
322,1.6973491334186134515697193247314
323,1.6979735760051366494796165814314
324,1.6985960889449838092494680458181
325,1.6992166841406264024676291883311
326,1.6998353733848375471010964720429
327,1.7004521683620374036742485060052
328,1.7010670806496160309592128404631
329,1.7016801217192386760436919346766
330,1.7022913029381299304501846401039
331,1.7029006355703381908906626897293
332,1.7035081307779814858887990959952
333,1.7041137996224750468151095551525
334,1.7047176530657388073491676056205
335,1.7053197019713891462915727762290
336,1.7059199571059109317681267503158
337,1.7065184291398127390625718392698
338,1.7071151286487663009209483399881
339,1.7077100661147262548248980637490
340,1.7083032519270362785660696935651
341,1.7088946963835173276896053165285
342,1.7094844096915404719478349131368
343,1.7100724019690839685445673146008
344,1.7106586832457745658688625270167
345,1.7112432634639148570438530095719
346,1.7118261524794941580775618628918
347,1.7124073600631864759663778431177
348,1.7129868959013323784673542323445
349,1.7135647695969083104560763852678
350,1.7141409906704808992040692743842
351,1.7147155685611483361711254756216
352,1.7152885126274685176720280318247
353,1.7158598321483732287890154934852
354,1.7164295363240697850000687088327
355,1.7169976342769304968012762789640
356,1.7175641350523681671065071318473
357,1.7181290476197008604642734831471
358,1.7186923808730051880937310109184
359,1.7192541436319538538815429583885
360,1.7198143446426463992606295452806
361,1.7203729925784248918424843474592
362,1.7209300960406810394072543715953
363,1.7214856635596493248677860920614
364,1.7220397035951911862062210479222
365,1.7225922245375684777553341027569
366,1.7231432347082050904997075000450
367,1.7236927423604396234122149221079
368,1.7242407556802658945626618097366
369,1.7247872827870659245499240053279
370,1.7253323317343311054405280121169
371,1.7258759105103744085312805017782
372,1.7264180270390325874230378151744
373,1.7269586891803583431307946095485
374,1.7274979047313067597179586722287
375,1.7280356814264067020350531295816
376,1.7285720269384286317876998702436
377,1.7291069488790406311561021230134
378,1.7296404547994558013863254712817
379,1.7301725521910728761675770578155
380,1.7307032484861068065702602741569
381,1.7312325510582121929930316681556
382,1.7317604672230966822996837737601
383,1.7322870042391290048197881522845
384,1.7328121693079366149257473265107
385,1.7333359695749965564532767111100
386,1.7338584121302202116297104834159
387,1.7343795040085276828588960067534
388,1.7348992521904157441718913899304
389,1.7354176636025200370409594497270
390,1.7359347451181686996728069783451
391,1.7364505035579277467332357528832
392,1.7369649456901418078893135279415
393,1.7374780782314676986667238446960
394,1.7379899078473994047281735895303
395,1.7385004411527873364563415124092
396,1.7390096847123515047188513969765
397,1.7395176450411882477330762416808
398,1.7400243286052705171757916879433
399,1.7405297418219402893395563728452
400,1.7410338910603974013037664490696
401,1.7415367826421808610511823058957
402,1.7420384228416433767575829580408
403,1.7425388178864219260058805875301
404,1.7430379739579022580260838770787
405,1.7435358971916747944184009597426
406,1.7440325936779880374068839762640
407,1.7445280694621966023556544553323
408,1.7450223305452013777556307762823
409,1.7455153828838846737716563888507
410,1.7460072323915428738429167126911
411,1.7464978849383108493681553634934
412,1.7469873463515817200801762027614
413,1.7474756224164230391842260276882
414,1.7479627188759858271213253893022
415,1.7484486414319107379350516228931
416,1.7489333957447277878911426748459
417,1.7494169874342524948542436129764
418,1.7498994220799755916749156044524
419,1.7503807052214505921169606456560
420,1.7508608423586741912656242089648
421,1.7513398389524634526186031655474
422,1.7518177004248290634828287202572
423,1.7522944321593424948360061866562
424,1.7527700395015006793987856123890
425,1.7532445277590845872974979196896
426,1.7537179022025153061786894014457
427,1.7541901680652051104268253304569
428,1.7546613305439035331941424824661
429,1.7551313947990423536524000802047
430,1.7556003659550723615939583900729
431,1.7560682491007994030593135177085
432,1.7565350492897168565276908711930
433,1.7570007715403298775906790091999
434,1.7574654208364825100693360127412
435,1.7579290021276754872726712868826
436,1.7583915203293826244113030326032
437,1.7588529803233639635597625079283
438,1.7593133869579746532566454893012
439,1.7597727450484702440712658997538
440,1.7602310593773094713746291707509
441,1.7606883346944516851938183946033
442,1.7611445757176524908211917985674
443,1.7615997871327572478993427905732
444,1.7620539735939870473795668827902
445,1.7625071397242264970389389336650
446,1.7629592901153043399320248595701
447,1.7634104293282740749731230810359
448,1.7638605618936877978791907293042
449,1.7643096923118711030040854636293
450,1.7647578250531911985355166162615
451,1.7652049645583257381779769817101
452,1.7656511152385252106977957686899
453,1.7660962814758746304339447931741
454,1.7665404676235509177525570881924
455,1.7669836780060795933486630291481
456,1.7674259169195860834264963844872
457,1.7678671886320463314957120241009
458,1.7683074973835331127148405037740
459,1.7687468473864605647378746574523
460,1.7691852428258265774421761184505
461,1.7696226878594508912969784650411
462,1.7700591866182121174576915563326
463,1.7704947432062822833922923618932
464,1.7709293617013570649837837011745
465,1.7713630461548856738801320729194
466,1.7717958005922975308280507971356
467,1.7722276290132250055445862537929
468,1.7726585353917272388078543339325
469,1.7730885236765075235041268689567
470,1.7735175977911317692132345999893
471,1.7739457616342423174817773729333
472,1.7743730190797714054381457920906
473,1.7747993739771496286970940949739
474,1.7752248301515169075908961207101
475,1.7756493914039248795292061276508
476,1.7760730615115432313379577922208
477,1.7764958442278603046220851496620
478,1.7769177432828826501891700401710
479,1.7773387623833324209647928768010
480,1.7777589052128429980334525655991
481,1.7781781754321514007276597822364
482,1.7785965766792910496052005470256
483,1.7790141125697802623632389005026
484,1.7794307866968093024963321113365
485,1.7798466026314274576286882112123
486,1.7802615639227247323676489773095
487,1.7806756740980150045166389995472
488,1.7810889366630152411887298190039
489,1.7815013551020240029785649391305
490,1.7819129328780970992936553223114
491,1.7823236734332225291047439770793
492,1.7827335801884932952765360830628
493,1.7831426565442780674651240152244
494,1.7835509058803907875945966966413
495,1.7839583315562574103845603349971
496,1.7843649369110830233237394644244
497,1.7847707252640150315837509923188
498,1.7851756999143063531005433894414
499,1.7855798641414761211164328823730
500,1.785983221205470024628049041837
501,1.786385774346816032723136834410
502,1.786787526786782957929819835932
503,1.787188481727533326646363059590
504,1.787588642352278400429170207373
505,1.787988011825428195543112488108
506,1.788386593292742230799948317845
507,1.788784389881478851646094842146
508,1.789181404700542770395018548402
509,1.789577640840629053427061086421
510,1.789973101374369608525003636629
511,1.790367789356475403355444019876
512,1.790761707823878315223243964913
513,1.791154859795871227772416931271
514,1.791547248274247051032802925797
515,1.791938876243437039050637240765
516,1.792329746670646615436807070565
517,1.792719862505989781567104324897
518,1.793109226682623892823970973228
519,1.793497842116881584828278750082
520,1.793885711708402706670655343560
521,1.794272838340263056386827799357
522,1.794659224879104194889261361503
523,1.795044874175260775534618575665
