Eigenstate,Potential Energy
1,0.500000000039165278058537894402655838
2,0.64623093790676513057892004349001265
3,0.73633761045592816077184748908387974
4,0.79966527937838668435400919391580594
5,0.8480465779951090482082865600663932
6,0.8870660010628467935232829979303889
7,0.9197208300207489099118566694562057
8,0.9477838512462823972621401135756600
9,0.9723835637460348877098141857892870
10,0.9942802216687779720150621560190475
11,1.0140093951556906964074654300322594
12,1.0319621795115087146215435731505078
13,1.0484327048021256244042038327671760
14,1.0636476687107599848583730728112952
15,1.0777854523521435125038672447080840
16,1.090988925142968293246213320296871
17,1.103374278263392613599794538122977
18,1.115037275663241514199630024305568
19,1.126057777165985226079314525295920
20,1.136503076102676236271399756336139
21,1.146430405393646944462792322661353
22,1.155888848707250166529871459769003
23,1.164920818396384079084363259060948
24,1.173563212898914607015874328438663
25,1.181848333533601997383633194350206
26,1.189804618307688717186063384642084
27,1.197457234879475409006463100953366
28,1.204828563917360827794424750791818
29,1.211938596301793859407858346220215
30,1.218805261967098151441371958122104
31,1.225444704034191386214081408194753
32,1.231871508807321640652409811441406
33,1.238098899898295473378361350207009
34,1.244138902991126112949512105346074
35,1.250002486420835055354036265114435
36,1.255699681706661500217863868659230
37,1.261239687375849506599880842634382
38,1.266630958783764006066464460617357
39,1.271881286138238161189152141930786
40,1.276997862540233774043786157707816
41,1.281987343536146175554521922068379
42,1.286855899422092425011282371219537
43,1.291609261334035304166636081534062
44,1.296252761989501574810003850815735
45,1.300791371809083399717849615539456
46,1.305229731032775544284007261660826
47,1.309572178352724363802555491240455
48,1.313822776506378217127832189238839
49,1.317985335209366403540139026476878
50,1.32206343175331100599308406062917
51,1.32606042954830906144669753433910
52,1.32997949485147726469165713060801
53,1.33382361189050129352454978530540
54,1.33759559656357071167852258135208
55,1.34129810887360491340230260725227
56,1.34493366423460100345586143551275
57,1.34850464377073554117234921683568
58,1.35201330371405489094545092197640
59,1.35546178399383497422633274188985
60,1.35885211609966671041250339303859
61,1.36218623029075920650651823042884
62,1.36546596221565175030927609948299
63,1.36869305899928377289220986621887
64,1.37186918484805946617079868983545
65,1.37499592621800890142916938454167
66,1.37807479658630015559156037121553
67,1.38110724086209466071071896364545
68,1.38409463946898183133483856431625
69,1.38703831212791635368796400656966
70,1.38993952136665325233467679202574
71,1.39279947577907714626903323664798
72,1.39561933305552386398761374182074
73,1.39840020280313958070336311700733
74,1.40114314917350379230392397925315
75,1.40384919331311133955528264751325
76,1.40651931565085913929618971075627
77,1.40915445803538088095078272645238
78,1.41175552573390714850658790578548
79,1.41432338930328160811279480510119
80,1.41685888634282577580921309357259
81,1.41936282313789553841975242031461
82,1.42183597620221115009066035675764
83,1.42427909372635369316404742317396
84,1.42669289693919670036113219111444
85,1.42907808138848235907588607929598
86,1.43143531814623585319035791595530
87,1.43376525494425392702320104852421
88,1.43606851724448037828705436257609
89,1.43834570924869768476897111154402
90,1.44059741485162075271879339371870
91,1.44282419854115732287966981572364
92,1.44502660624931127255569370164399
93,1.44720516615694279705609537958966
94,1.44936038945535652511721987286684
95,1.45149277106746746887454955642854
96,1.45360279033109288684053527525177
97,1.45569091164673379623450723441270
98,1.45775758509203699671600453631314
99,1.45980324700497499538401567778682
100,1.46182832053763488248826285773339
101,1.46383321618237790314439037966698
102,1.46581833227200589562374966446489
103,1.46778405545546285317550310416237
104,1.46973076115049260162866288760973
105,1.47165881397458051126433930876714
106,1.47356856815541639720514883089881
107,1.47546036792203768061311934403842
108,1.47733454787773264343307456945735
109,1.47919143335571501588442279575893
110,1.48103134075851871577904988250926
111,1.48285457788199569754466291635435
112,1.48466144422475043519938054812119
113,1.48645223128378902772927536423507
114,1.48822722283711215756434146436980
115,1.48998669521394068434569667648112
116,1.49173091755321432452865008705872
117,1.49346015205097215435957883927289
118,1.49517465419718264265882023951275
119,1.49687467300255720612571843856436
120,1.49856045121585543764691169230862
121,1.50023222553215189084458861051486
122,1.50189022679251539096890398117270
123,1.50353468017551964930658777126100
124,1.50516580538098627846920520467838
125,1.50678381680633173966141212947858
126,1.50838892371587455573204509578570
127,1.50998133040343854592438681833059
128,1.51156123634856525105227636243716
129,1.51312883636663664459041098800751
130,1.51468432075319084330007884611853
131,1.51622787542269812689341979037078
132,1.51775968204204959903879893303576
133,1.51927991815899904042530673764758
134,1.52078875732578722864633492986087
135,1.52228636921815989131924856848135
136,1.52377291974998677132771911379759
137,1.52524857118367597513020182631290
138,1.52671348223656416308693249725338
139,1.52816780818346103485263827015552
140,1.52961170095551111691360409899710
141,1.53104530923553130185793656616345
142,1.53246877854997451570085109861559
143,1.53388225135766123941739456929847
144,1.53528586713541343119823065793653
145,1.53667976246072120818478406511046
146,1.53806407109156477768944990197015
147,1.53943892404350590494033540660125
148,1.54080444966416424635677265758355
149,1.54216077370518034928766414375744
150,1.54350801939176895906728219194992
151,1.54484630748995854761988385522820
152,1.54617575637160736275925109342009
153,1.54749648207728494785316272574958
154,1.54880859837710303107039643850735
155,1.55011221682957402017847307911357
156,1.55140744683857496923020977624124
157,1.55269439570848806371679142806331
158,1.55397316869758944226318280043472
159,1.5552438690697500276732392531933
160,1.5565065981445147048365477696919
161,1.5577614553456183415900180210406
162,1.5590085382479981136078572740238
163,1.5602479426233569865913869773150
164,1.5614797624843329923260016508454
165,1.5627040901273228987951644205685
166,1.5639210161740107899123099456461
167,1.5651306296116487871624736755949
168,1.5663330178321326020395991610963
169,1.5675282666699169813420593210386
170,1.5687164604388107884149148092180
171,1.5698976819676919147716028811562
172,1.5710720126351798887256532700046
173,1.5722395324033015833353077102210
174,1.5734003198501858671476420380703
175,1.5745544522018211826474639839526
176,1.5757020053629057587361813742786
177,1.5768430539468237177506614933166
178,1.5779776713047762313904684593710
179,1.5791059295540941704719340023204
180,1.5802278996057631948802214115658
181,1.5813436511911839322780834721979
182,1.5824532528881949409289198506608
183,1.5835567721463815058806673337118
184,1.5846542753116945100187771300525
185,1.5857458276504011880840778561101
186,1.5868314933723887322468130851786
187,1.5879113356538445497068799365250
188,1.5889854166593286086064365115230
189,1.5900537975632616033147104091058
190,1.5911165385708445901316613460930
191,1.5921736989384293159307212494864
192,1.5932253369933556219116770444688
193,1.5942715101532742262789111879296
194,1.5953122749449682265943973671258
195,1.5963476870226912541303776077427
196,1.5973778011860359720873445225920
197,1.5984026713973472929636167345593
198,1.5994223507986944770205160960683
199,1.6004368917284149456617501018156
200,1.6014463457372437498910566930922
201,1.6024507636040396702297937594869
202,1.6034501953511213242093932161768
203,1.6044446902592239361232327509885
204,1.6054342968820883839032026172060
205,1.6064190630606924884358101256183
206,1.6073990359371375640182790035876
207,1.6083742619681961005833066905299
208,1.6093447869385347991004356380480
209,1.6103106559736187029851196443737
210,1.6112719135523079211178125432137
211,1.6122286035191543014330495652529
212,1.6131807690964082822039452846051
213,1.6141284528957402989138685354294
214,1.6150716969296917224020801438886
215,1.6160105426228545345118355586235
216,1.6169450308227936956951066070276
217,1.6178752018107161636129107669737
218,1.6188010953118955351779333310338
219,1.6197227505058555849722266204178
220,1.6206402060363252081641482562927
221,1.6215535000209626702111783764211
222,1.6224626700608663607104632341062
223,1.6233677532498656122247490162045
224,1.6242687861836066433783017402055
225,1.6251658049684361827617845246637
226,1.6260588452300863115830180980416
227,1.6269479421221691679064588080003
228,1.6278331303344833226771094002080
229,1.6287144441011389796681924467652
230,1.6295919172085066855853614209298
231,1.6304655830029913395863227633586
232,1.6313354743986419111247833218695
233,1.6322016238845918516111050724661
234,1.6330640635323463459440844712950
235,1.6339228250029095750013635681431
236,1.6347779395537616878449686794138
237,1.6356294380456891037562250857245
238,1.6364773509494698750987581097233
239,1.6373217083524195465761832058218
240,1.6381625399647996642885154733121
241,1.6389998751260932159215989925158
242,1.6398337428111498580052666443742
243,1.6406641716362049609994551695723
244,1.6414911898647741604285265507505
245,1.6423148254134277871601179053556
246,1.6431351058574476953803893172245
247,1.6439520584363678700354123923841
248,1.6447657100594063942775566437441
249,1.6455760873107837454159661593485
250,1.6463832164549378034767413156372
251,1.6471871234416334717830749328891
252,1.6479878339109697074550928259466
253,1.6487853731982890334311314304614
254,1.6495797663389891882673171677119
255,1.6503710380732407931434918786011
256,1.6511592128506111208422721139447
257,1.6519443148346003574444446392073
258,1.6527263679070868007988740607756
259,1.6535053956726877986170856281758
260,1.6542814214630368118962483155498
261,1.6550544683409769167274409998714
262,1.6558245591046754692206527226679
263,1.6565917162916587834330993852155
264,1.6573559621827722724582666500030
265,1.6581173188060645772082365226778
266,1.6588758079405978499256343766498
267,1.6596314511201874049623335940111
268,1.6603842696370707698284111013584
269,1.6611342845455104057151418820254
270,1.6618815166653258209211237066530
271,1.6626259865853643604223770760395
272,1.6633677146669046504355191408183
273,1.6641067210470001403727265339872
274,1.6648430256417599504908248991493
275,1.6655766481495709000983155557017
276,1.6663076080542589939575147831739
277,1.6670359246281978501799371389064
278,1.6677616169353558235472241709757
279,1.6684847038342933267107244064912
280,1.6692052039811024421240973899125
281,1.6699231358322967135204989273034
282,1.6706385176476486131917140380775
283,1.6713513674929778975037973402639
284,1.6720617032428880071737739851450
285,1.6727695425834573195567998500741
286,1.6734749030148812776777768077148
287,1.6741778018540704552880669343432
288,1.6748782562372009597125046648259
289,1.6755762831222218205398008335848
290,1.6762718992913200966734988570065
291,1.6769651213533415426730458817085
292,1.6776559657461697192810678142515
293,1.6783444487390674539011650565673
294,1.6790305864349756879308860922587
295,1.6797143947727717980840545170823
296,1.6803958895294949772529759855776
297,1.6810750863225286066251208275776
298,1.6817520006117489357959484948505
299,1.6824266477016368737231559880832
300,1.6830990427433546411163788144635
301,1.6837692007367876956876460329476
302,1.6844371365325540231833941304989
303,1.6851028648339779673153548113131
304,1.6857664001990321761073765449038
305,1.6864277570422490931733963282285
306,1.6870869496366012571344269509341
307,1.6877439921153475911368675272469
308,1.6883988984738531609088819735464
309,1.6890516825713784906296708262485
310,1.6897023581328387717662273517014
311,1.6903509387505365597902068917182
312,1.6909974378858654719163228481336
313,1.6916418688709862786204034082858
314,1.6922842449104771932201668455778
315,1.6929245790829576791720813396454
316,1.6935628843426871507353893423144
317,1.6941991735211361056187869697554
318,1.6948334593285350408649868405014
319,1.6954657543553982935454929087448
320,1.6960960710740228075341560865923
321,1.6967244218399657453048716012637
322,1.6973508188934970591954231356222
323,1.6979752743610305361871071406047
324,1.6985978002565322933517655114234
325,1.6992184084829084859583401504791
326,1.6998371108333704654767470179473
327,1.7004539189927802082469895227297
328,1.7010688445389732040197379426165
329,1.7016818989440637792390951260092
330,1.7022930935757292867460625732719
331,1.7029024396984746004911824635490
332,1.7035099484748779764933257401781
333,1.7041156309668186585946289228637
334,1.7047194981366844130306885602709
335,1.7053215608485633067436877744068
336,1.7059218298694157874853683118244
337,1.7065203158702299379521685262246
338,1.7071170294271609627997005787383
339,1.7077119810226509730398667907561
340,1.7083051810465351591573505862327
341,1.7088966397971300665197239076032
342,1.7094863674823064702267193324056
343,1.7100743742205464871852995478495
344,1.7106606700419849191145026391049
345,1.7112452648894366458116219729271
346,1.7118281686194075434723478682377
347,1.7124093910030924934211410366362
348,1.7129889417273572929743908141839
349,1.7135668303957080133584683300783
350,1.7141430665292453470231645673020
351,1.7147176595676060319521557710599
352,1.7152906188698910353359942129186
353,1.7158619537155797809851942409916
354,1.7164316733054318349606835867682
355,1.7169997867623764147053200738586
356,1.7175663031323879314674107828592
357,1.7181312313853508050621779047199
358,1.7186945804159127949803839787014
359,1.7192563590443225929925569106488
360,1.7198165760172606151768937313934
361,1.7203752400086547382497910001002
362,1.7209323596204874618105910788296
363,1.7214879433835890921236081276722
364,1.7220419997584219714444835366274
365,1.7225945371358539892694630230297
366,1.7231455638379202531913814950150
367,1.7236950881185758113851461578766
368,1.7242431181644362154678676736682
369,1.7247896620955105562925019254690
370,1.7253347279659226858669680729433
371,1.7258783237646234787239121890760
372,1.7264204574160930892371595747840
373,1.7269611367810331716180109817377
374,1.7275003696570533710891272489079
375,1.7280381637793427778236652602734
376,1.7285745268213377998846232228330
377,1.7291094663953782443949128714376
378,1.7296429900533547743685658179490
379,1.7301751052873495810256744605642
380,1.7307058195302670283764959180601
381,1.7312351401564571455317611854006
382,1.7317630744823290849302538514596
383,1.7322896297669592211676243891475
384,1.7328148132126888541488961050344
385,1.7333386319657151378427245138720
386,1.7338610931166758933114885842160
387,1.7343822037012240553769246342248
388,1.7349019707005956897418157666377
389,1.7354204010421722552750554833699
390,1.7359375016000343005887780570343
391,1.7364532791955069118691443830805
392,1.7369677405977005203605304342537
393,1.7374808925240445430104946646118
394,1.7379927416408124373945622829941
395,1.7385032945636410278161791043387
396,1.7390125578580437534707183830910
397,1.7395205380399174686051095284283
398,1.7400272415760428028299465833947
399,1.7405326748845766473986915005860
400,1.7410368443355410674357154553056
401,1.7415397562513046890563144976324
402,1.7420414169070573066209187807354
403,1.7425418325312805308873637542627
404,1.7430410093062123711776790058673
405,1.7435389533683032170298009607579
406,1.7440356708086693283967402583332
407,1.7445311676735409511396358537435
408,1.7450254499647025610372356545754
409,1.7455185236399280974171225664582
410,1.7460103946134137009168559794195
411,1.7465010687562022154220090880244
412,1.7469905518966030368014715387633
413,1.7474788498206083875307298492995
414,1.7479659682723024410808568181581
415,1.7484519129542675800675840122094
416,1.7489366895279842178279626757495
417,1.7494203036142270319447648799306
418,1.7499027607934547729902817164211
419,1.7503840666061979270370952759684
420,1.7508642265534392138938075796834
421,1.7513432460969908732872565196728
422,1.7518211306598680206316636697342
423,1.7522978856266559085637125909583
424,1.7527735163438747080075977199034
425,1.7532480281203381881707447563992
426,1.7537214262275099023511737413456
427,1.7541937158998543642270172389491
428,1.7546649023351832283599336949253
429,1.7551349906950003873410290750563
430,1.7556039861048388477298990700232
431,1.7560718936545968884840039211782
432,1.7565387183988706514379873180156
433,1.7570044653572785017760485707145
434,1.7574691395147882564793233554132
435,1.7579327458220351044693765227383
436,1.7583952891956381194867177449585
437,1.7588567745185135271213694131166
438,1.7593172066401837081074767571838
439,1.7597765903770826192377649468283
440,1.7602349305128587031598063111981
441,1.7606922317986724469592581961025
442,1.7611484989534921532274895093665
443,1.7616037366643875713618377321050
444,1.7620579495868160085216438700537
445,1.7625111423449102509558849918600
446,1.7629633195317593201032580635176
447,1.7634144857096892326908550249739
448,1.7638646454105369830906235259723
449,1.7643138031359255884937579674169
450,1.7647619633575323494043073033046
451,1.7652091305173578286059310320081
452,1.7656553090279883900094048904443
453,1.7661005032728580405162648831562
454,1.7665447176065059639080937560548
455,1.7669879563548333706999433323461
456,1.7674302238153549610194076400521
457,1.7678715242574496962864437829557
458,1.7683118619226072756568485374582
459,1.7687512410246728312229429059169
460,1.7691896657500894843841266676234
461,1.7696271402581366131839119805144
462,1.7700636686811670437353814772672
463,1.7704992551248417695803309881645
464,1.7709339036683603599635274218276
465,1.7713676183646910258334992569162
466,1.7718004032407974743465520452492
467,1.7722322622978618324674881562584
468,1.7726631995115086553916918086616
469,1.7730932188320224965672009872860
470,1.7735223241845665639412572084430
471,1.7739505194693967296256897157050
472,1.7743778085620751906796749086303
473,1.7748041953136791320029278405473
474,1.7752296835510118954223523396506
475,1.7756542770768055778221561568929
476,1.7760779796699275722156518346397
477,1.7765007950855813848530750736291
478,1.7769227270555064044507016626407
479,1.7773437792881755130259072041489
480,1.7777639554689909330200472213001
481,1.7781832592604768616886661737152
482,1.7786016943024724616497989940889
483,1.7790192642123205876949017630373
484,1.7794359725850550697256586566142
485,1.7798518229935880288038956705456
486,1.7802668189888918112191155199448
487,1.7806809641001823894707369993818
488,1.7810942618350988267681984239012
489,1.7815067156798820332657960242042
490,1.7819183290995506771975615960348
491,1.7823291055380763852350804862900
492,1.7827390484185568202946694581220
493,1.7831481611433866118459012148959
494,1.7835564470944272328036129813770
495,1.7839639096331740155403076479094
496,1.7843705521009235514892625306703
497,1.7847763778189371598992843557257
498,1.7851813900886043710451635098320
499,1.7855855921916039212592775239384
500,1.785988987390064390306026403027
501,1.786391578926720227160489291102
502,1.786793370025070619391713767906
503,1.787194363889532674301639697220
504,1.787594563705596755677273564586
505,1.787993972639976823646290686939
506,1.788392593840761507744763800423
507,1.788790430437563761247330640254
508,1.789187485541668736743098664208
509,1.789583762246178113871206696810
510,1.789979263626156932475870632384
511,1.790373992738776162286556491204
512,1.790767952623454909346421819203
513,1.791161146302000874959809919934
514,1.791553576778749743659707599831
515,1.791945247040703874534801153283
516,1.792336160057668506353475947538
517,1.792726318782386551327090592553
518,1.793115726150673763010406626079
519,1.793504385081551060396470170548
520,1.793892298477376865332687022240
521,1.794279469223976248613882718482
522,1.794665900190771161085588130744
523,1.795051594230908187055001667530
