Eigenstate,Potential Energy
1,0.500000001489412876872513254093446060
2,0.64623094737361168291381962822624855
3,0.73633763826578675658712396227372159
4,0.79966533730817185834018796866471655
5,0.8480466783524452982023268496260195
6,0.8870661563777948735019682298227253
7,0.9197210529333759884278389667823524
8,0.9477841544608434023543710195942693
9,0.9723839600106516471045352616706086
10,0.9942807237660357213428152377648376
11,1.0140100158983778165925027120946219
12,1.0319629317409813343662408201330361
13,1.0484336013881052767762345246961819
14,1.0636487225519601597966942774121960
15,1.0777866763774005302539875146212777
16,1.090990332312693314203398110222583
17,1.103375881571236964922321629400768
18,1.115039088137909561199893085575246
19,1.126059811873153431388581083557453
20,1.136505346146991734321355189478169
21,1.146432923920788071518279365162877
22,1.155891628906037202047837613432413
23,1.164923873500932260464650562307893
24,1.173566556190824028939178500118274
25,1.181851978344180750532458970756537
26,1.189808578020206837350287592404606
27,1.197461522931448071672732739382140
28,1.204833193802859848113965668585711
29,1.211943581573787016944962873995803
30,1.218810616239816202756133653728576
31,1.225450440985522889688612951640972
32,1.231877642181235920159872384470841
33,1.238105443507294206595735589852460
34,1.244145870718724157783147761631778
35,1.250009892224071232304774531795912
36,1.255707539618640135520850367621708
37,1.261248011508313615019076438152746
38,1.266639763329701056543678914255599
39,1.271890585374519425587509349532784
40,1.277007670830288310817759721835431
41,1.281997675332670547740855230486082
42,1.286866769269797296548951233911752
43,1.291620683872430101072119930412598
44,1.296264751955718438821535033176453
45,1.300803944040741702211946401304364
46,1.305242900470888267991682835960219
47,1.309585960044647699453381243669347
48,1.313837185608805761923777932483830
49,1.318000386991369388543736618620604
50,1.32207914159942602031137020027748
51,1.32607681296167478268701799699001
52,1.32999656745702174770216740131234
53,1.33384138943818141305859976093214
54,1.33761409493166539946029420066486
55,1.34131734407206387623562921050496
56,1.34495365240845065661964287619057
57,1.34852540120354394048442945252903
58,1.35203484683145749766129568280772
59,1.35548412936712313944630350863912
60,1.35887528044944082002359431569414
61,1.36221023049064848395600199119732
62,1.36549081529610277280751214943490
63,1.36871878215141981705892963875236
64,1.37189579542761286177627349408970
65,1.37502344174932863684800787770652
66,1.37810323476643704596766274077578
67,1.38113661956496645975466836507182
68,1.38412497674962074023896221124683
69,1.38706962622680145597535223155026
70,1.38997183071413048165255956244030
71,1.39283279899986947536168942865819
72,1.39565368897333448741901245065606
73,1.39843561044535095152464200386203
74,1.40117962777597546388272256032062
75,1.40388676232507965838397281566099
76,1.40655799473994193288732080995645
77,1.40919426709269038712569043971834
78,1.41179648487927453860496269924878
79,1.41436551889059656711133667411018
80,1.41690220696549471720128292046152
81,1.41940735563442215119095741286571
82,1.42188174166190309940767263562914
83,1.42432611349515942571614650107318
84,1.42674119262567643986337402821331
85,1.42912767486991751751387586191681
86,1.43148623157488122918135080722751
87,1.43381751075373721449411968808422
88,1.43612213815635366675565728333526
89,1.43840071827914579717231985028469
90,1.44065383531833143827661315075599
91,1.44288205407035850121553614512356
92,1.44508592078298071156069900915450
93,1.44726596396019580114553074626599
94,1.44942269512401741294789601505929
95,1.45155660953583083067856020791544
96,1.45366818687988083168118080644041
97,1.45575789191125562916916333748228
98,1.45782617507055800548686326081863
99,1.45987347306730127637353123090212
100,1.46190020943392139675060030542663
101,1.46390679505216722593631727343568
102,1.46589362865350540754177939261247
103,1.46786109729506841839576559418275
104,1.46980957681256708947308255915242
105,1.47173943225149584203503718060811
106,1.47365101827786813268864402827187
107,1.47554467956964153456575503073196
108,1.47742075118991265856263095468001
109,1.47927955894289354213998635418899
110,1.48112141971361873107679191248484
111,1.48294664179226643730865117905821
112,1.48475552518392774230938693457224
113,1.48654836190460230067262558288744
114,1.48832543626415026293317772607273
115,1.49008702513688971147609847842258
116,1.49183339822048059630872583001913
117,1.49356481828370447038997582134173
118,1.49528154140370832042087468748931
119,1.49698381719324710413337673948623
120,1.49867188901843379332508257140043
121,1.50034599420746748675901622014625
122,1.50200636425079127787517842680373
123,1.50365322499309940517658414609898
124,1.50528679681759557124524311863535
125,1.50690729482287479016456944172798
126,1.50851492899278596818242781190752
127,1.51010990435961188942766934527367
128,1.51169242116088073874906256311751
129,1.51326267499011127076728629409159
130,1.51482085694177540558143268644816
131,1.51636715375074668387145382117391
132,1.51790174792648809671348844757012
133,1.51942481788222108723657992058007
134,1.52093653805930631258136423637515
135,1.52243707904704871764302168550701
136,1.52392660769813586034077391731946
137,1.52540528723990520075037355273858
138,1.52687327738162253995382291493778
139,1.52833073441795177954277141234029
140,1.52977781132878082345699417596886
141,1.53121465787556398924263140112778
142,1.53264142069433333214856837005268
143,1.53405824338552275195887935770416
144,1.53546526660074169713651560367715
145,1.53686262812663122560335806049866
146,1.53825046296592745406313663663428
147,1.53962890341584937557584349294412
148,1.54099807914392922802096239243222
149,1.54235811726139023993636989374095
150,1.54370914239417860379198545035400
151,1.54505127675174899658696318736072
152,1.54638464019369756257951395058362
153,1.54770935029433514833216547678998
154,1.54902552240528877051510721803892
155,1.55033326971621389159143998536309
156,1.55163270331369998535653515012593
157,1.55292393223844535101589196461018
158,1.55420706354077822434810972361096
159,1.5554822023345934307713987057945
160,1.5567494518497768571705660374046
161,1.5580089134831825725197137313111
162,1.5592606868482288169609238177259
163,1.5605048698231749282660330464549
164,1.5617415585981415501422041240553
165,1.5629708477209309610720807731187
166,1.5641928301417068498619436187265
167,1.5654075972565901984030719564630
168,1.5666152389502240555148517619188
169,1.5678158436373630795751190645712
170,1.5690094983035391880224359859943
171,1.5701962885448559464459320357200
172,1.5713762986069629155970579183877
173,1.5725496114232597001341970468132
174,1.5737163086523809577610894566028
175,1.5748764707150129341380238010075
176,1.5760301768300890762374553969295
177,1.5771775050504172072790835654887
178,1.5783185322977881375379236455289
179,1.5794533343976145065235835120830
180,1.5805819861131549305499776817909
181,1.5817045611793721704239910563671
182,1.5828211323364811972276646449577
183,1.5839317713632407008220076888903
184,1.5850365491100453076011852104075
185,1.5861355355318761100840804287130
186,1.5872287997211693063440101363569
187,1.5883164099406689083144646685183
188,1.5893984336563247692702723972143
189,1.5904749375703094935003665374469
190,1.5915459876542241321986040468768
191,1.5926116491825710108083900274311
192,1.5936719867665745624332805185498
193,1.5947270643884388916381524766158
194,1.5957769454361323814506459404867
195,1.5968216927388014974231640338484
196,1.5978613686029197333251760733159
197,1.5988960348492872348430950801246
198,1.5999257528510063178123542987481
199,1.6009505835725677718068690284654
200,1.6019705876101961974735165752822
201,1.6029858252336133229515278686077
202,1.6039963564293958983501075208694
203,1.6050022409461191024343432461626
204,1.6060035383414964572966973403587
205,1.6070003080317470199632252561116
206,1.6079926093434477378782132455232
207,1.6089805015681487813814336940943
208,1.6099640440200685286372212015473
209,1.6109432960972108421623960570303
210,1.6119183173462919768083144226699
211,1.6128891675319044435262422609696
212,1.6138559067103980953700661183680
213,1.6148185953090097908694802144130
214,1.6157772942108484570184387235794
215,1.6167320648464006596414767392080
216,1.6176829692923212545362919139516
217,1.6186300703783608209439087545543
218,1.6195734318033981860153686627494
219,1.6205131182616691636053650572388
220,1.6214491955804402176662624082006
221,1.6223817308705328259421555075519
222,1.6233107926913227774657603120820
223,1.6242364512320466643827274663359
224,1.6251587785115395321634220889722
225,1.6260778485988311990209739833893
226,1.6269937378574004963929173158808
227,1.6279065252163280534624601249052
228,1.6288162924720963918864935118579
229,1.6297231246254013305385937388218
230,1.6306271102580610149723667965665
231,1.6315283419559703861576555551460
232,1.6324269167850922752644927591327
233,1.6333229368287043947889500277057
234,1.6342165097956431153227023613749
235,1.6351077497110801494461146204409
236,1.6359967777035978556688006550304
237,1.6368837229050290403235844170826
238,1.6377687234828507893836198137349
239,1.6386519278290331585379428943129
240,1.6395334959343412801642441391855
241,1.6404136009834623785979386306193
242,1.6412924312143322851714652257756
243,1.6421701920951582867772937650728
244,1.6430471088855160415353689469111
245,1.6439234296644169916629164682271
246,1.6447994289295740119788461596523
247,1.6456754118998687117282224749196
248,1.6465517196895065985378234258839
249,1.6474287355706731183325622931663
250,1.6483068926062066196246417465999
251,1.6491866830212662696104045204769
252,1.6500686698026035989247879147616
253,1.6509535011796389510152727519047
254,1.6518419288737820585903795485612
255,1.6527348313328376500689408017267
256,1.6536332436447174230500483666338
257,1.6545383965262527125015148507165
258,1.6554517678333179359323104840721
259,1.6563751516439386357722411262238
260,1.6573107524764741910730004592801
261,1.6582613162318347485511820551308
262,1.6592303160958102204188654716111
263,1.6602222229719012840181259149923
264,1.6612429100721229018874474619859
265,1.6623002783392139668696144705114
266,1.6634052613110566130648223943842
267,1.6645735162727496033566593251414
268,1.6658284366897117331562907076237
269,1.6672069145462613243003593795840
270,1.6687714291752088475331913517753
271,1.6706387860202587160852469156541
272,1.6730619502867499102349986828792
273,1.6767412738385208842647380936397
274,1.6849310271010578915248513023197
