Eigenstate,Potential Energy
1,0.500000000043542302351335842298139302
2,0.64623093793533611538881115022481716
3,0.73633761053985335703399980535221368
4,0.79966527955319395236883154527975595
5,0.8480465782979124809083158920341544
6,0.8870660015314109577549907895408873
7,0.9197208306931441558200439132588520
8,0.9477838521607411937682145847955173
9,0.9723835649408850971174137219153824
10,0.9942802231824090564841318995597802
11,1.0140093970265354273416962218469332
12,1.0319621817780327821972783485530908
13,1.0484327075028215480580889139269709
14,1.0636476718841434990766566075019812
15,1.0777854560367514460092599383892731
16,1.090988929377357386360961230053907
17,1.103374283086138945980610106515337
18,1.115037281112940342006078298246140
19,1.126057783281251101288098690715455
20,1.136503082922143325133255313780877
21,1.146430412955969489566589680174287
22,1.155888857051103054454761751448761
23,1.164920827560463487071985266176664
24,1.173563222921938709750346224731700
25,1.181848344454311720190126584938292
26,1.189804630164848525588453021972944
27,1.197457247711874127149755590354207
28,1.204828577763812480078725135798975
29,1.211938611201138531020818292881034
30,1.218805277958202864464467271347564
31,1.225444721155950988715885557597363
32,1.231871527098659706739002929468717
33,1.238098919398165212595864518358807
34,1.244138923738511287760974948812381
35,1.250002508454750905667241901091716
36,1.255699705066155674139997107519193
37,1.261239712100002996752537692319606
38,1.266630984911692090919904838496322
39,1.271881313709091350975238841082864
40,1.276997891593198760888221861444769
41,1.281987374110446787534907693080166
42,1.286855931556990583901389014584141
43,1.291609295068831986671552868638438
44,1.296252797363537777133391107632615
45,1.300791408861741105332902460815704
46,1.305229769803478694805108363369943
47,1.309572218880939832875846689303509
48,1.313822818831616787276861591933248
49,1.317985379371183745917897301705988
50,1.32206347779130866300464233499160
51,1.32606047750213543221765234492284
52,1.32997954476082859336702113955474
53,1.33382366379512266039083013565262
54,1.33759565050325702710874218017979
55,1.34129816488820191462979338070342
56,1.34493372236400625418794461477079
57,1.34850470405489943405963279680178
58,1.35201336619298165292654101310932
59,1.35546184870758367477130344799969
60,1.35885218308835227269163408211426
61,1.36218629959455342151359568413119
62,1.36546603387478429397126192712793
63,1.36869313305404322619927734209621
64,1.37186926133879433836275402109796
65,1.37499600518512865627607550065091
66,1.37807487807027624080800023677322
67,1.38110732490346154054461442401139
68,1.38409472610833802237309317354466
69,1.38703840140592546392243849595970
70,1.38993961332404502353313725413298
71,1.39279957045664849969675012749730
72,1.39561943049413994952629736747671
73,1.39840030304373482941499675225491
74,1.40114325225708297248791723266745
75,1.40384929928075061634818260055592
76,1.40651942454370713786390986588886
77,1.40915456989465975332405929264769
78,1.41175564060091364411102071169098
79,1.41432350721938814804552066939271
80,1.41685900734948153091483413118197
81,1.41936294727662751121878927682059
82,1.42183610351462526061435168084193
83,1.42427922425413586874989712582586
84,1.42669303072411396946413360576345
85,1.42907821847238394915091639048442
86,1.43143545857105429270173024793551
87,1.43376539875200615163790155986898
88,1.43606866447726884130867026030798
89,1.43834585994871147186984344113748
90,1.44059756906113670102839829251888
91,1.44282435630254114448772737197945
92,1.44502676760501868248900547464537
93,1.44720533114952064578855838507641
94,1.44936055812744393567298006411059
95,1.45149294346179697858472802320590
96,1.45360296649049159381440927497278
97,1.45569109161412451060656495623804
98,1.45775776891043939673070858268640
99,1.45980343471750678838063382602775
100,1.46182851218751297084859783591222
101,1.46383341181291955526671421630797
102,1.46581853192662992198673081620724
103,1.46778425917769078755643467356903
104,1.46973096898394988754074542968059
105,1.47165902596299769367831551744343
106,1.47356878434263031962105009519299
107,1.47546058835199268754840570396910
108,1.47733477259448178839395193556500
109,1.47919166240342127488763309377245
110,1.48103157418145620649195158331327
111,1.48285481572455090411193477752143
112,1.48466168653142343882521413660220
113,1.48645247809919474308442453737357
114,1.48822747420598157508803858086833
115,1.48998695118112211851279201449697
116,1.49173117816367466815310163866710
117,1.49346041734979813900581726928758
118,1.49517492422958210523313893211069
119,1.49687494781386036172041097910870
120,1.49856073085151615871042420254410
121,1.50023251003774899275157071268922
122,1.50189051621375392406456740565733
123,1.50353497455823219750046341556132
124,1.50516610477113426445390497655504
125,1.50678412125000673683267863116270
126,1.50838923325929960688695072541528
127,1.50998164509296948881516646198616
128,1.51156155623069205087392473731757
129,1.51312916148798473348080356038529
130,1.51468465116052246693201378747598
131,1.51622821116291369823867142164186
132,1.51776002316218905938487024842605
133,1.51928026470624322772628977888105
134,1.52078910934745925328995829904859
135,1.52228672676172651939285194723031
136,1.52377328286305981546661556467570
137,1.52524893991401369303258829840142
138,1.52671385663207266378019829971892
139,1.52816818829219569279668933290125
140,1.52961208682567799402751018825963
141,1.53104570091548857755693848232310
142,1.53246917608823392503156436334036
143,1.53388265480288951937975647949706
144,1.53528627653643377534352168326805
145,1.53668017786651472957986827054920
146,1.53806449255127198033804005393453
147,1.53943935160642816375307793218340
148,1.54080488337976529576257337600014
149,1.54216121362308778057962338515421
150,1.54350846556177572657730494505016
151,1.54484675996202448381701083545832
152,1.54617621519586070236750274466017
153,1.54749694730402386108556065060361
154,1.54880907005679716607674155450656
155,1.55011269501286605480528226499324
156,1.55140793157628217219215653019209
157,1.55269488705160386527982282267310
158,1.55397366669728501454048502848775
159,1.5552443737773758746360891320351
160,1.5565071096116022621430228609513
161,1.5577619736238815863355553095781
162,1.5590090633893351841025251976571
163,1.5602484746798518122697011934213
164,1.5614803015082569338961738881819
165,1.5627046361711363987356435570066
166,1.5639215692903650334244754008108
167,1.5651311898533873736892761794414
168,1.5663335852522932274611352557480
169,1.5675288413217331309600010286804
170,1.5687170423757134408388524148485
171,1.5698982712433112568213065740341
172,1.5710726093033470414644695478982
173,1.5722401365180503393509953660650
174,1.5734009314657544391979412868547
175,1.5745550713726539637890092300771
176,1.5757026321436550940563644480173
177,1.5768436883923516878232273645705
178,1.5779783134701564475768631888752
179,1.5791065794946135821915747498488
180,1.5802285573769239089740187925812
181,1.5813443168487050445908029574912
182,1.5824539264880143802372326294118
183,1.5835574537446578902948729565630
184,1.5846549649648090159875672949366
185,1.5857465254149594321329244929572
186,1.5868321993052226655818531105116
187,1.5879120498120143658175192029602
188,1.5889861391001246640011258112349
189,1.5900545283442063515258854856138
190,1.5911172777496945291269104427903
191,1.5921744465731769490689051993809
192,1.5932260931422314325839699662260
193,1.5942722748747486663761048996970
194,1.5953130482977537189433800621815
195,1.5963484690657442090439954489439
196,1.5973785919785588181735284300281
197,1.5984034709987905223408484008490
198,1.5994231592687587050884086704850
199,1.6004377091270529855771114978342
200,1.6014471721246627019011262253194
201,1.6024515990407030260160230341058
202,1.6034510398977510863967486533172
203,1.6044455439768027531115083216262
204,1.6054351598318617001786293332702
205,1.6064199353041707105225856944466
206,1.6073999175360982422316660691684
207,1.6083751529846861267472825840572
208,1.6093456874348726203949125259767
209,1.6103115660123965520892308788729
210,1.6112728331963940628175975741878
211,1.6122295328316952958636562166035
212,1.6131817081408312648982600546898
213,1.6141294017357552778313033491729
214,1.6150726556292938921130258151606
215,1.6160115112463266077152677453335
216,1.6169460094347082522486245460424
217,1.6178761904759380172563466135024
218,1.6188020940955841181339085174064
219,1.6197237594734673506084923703167
220,1.6206412252536160519050344984558
221,1.6215545295539903688872747176987
222,1.6224637099759930305375228127575
223,1.6233688036137601856051505889526
224,1.6242698470632473647203518065113
225,1.6251668764311131235143770002122
226,1.6260599273434039046851495947446
227,1.6269490349540487618533438216660
228,1.6278342339531657554068655713911
229,1.6287155585751871724753004501532
230,1.6295930426068082572693960927583
231,1.6304667193947612410466429056016
232,1.6313366218534250806140582249241
233,1.6322027824722658908635451906943
234,1.6330652333231242173956634437529
235,1.6339240060673423203225711783632
236,1.6347791319627411680084342565970
237,1.6356306418704507608645786778063
238,1.6364785662615955162003151124567
239,1.6373229352238401496984718279384
240,1.6381637784677982069225340539387
241,1.6390011253333075261920070528365
242,1.6398350047955754887646196461864
243,1.6406654454711980870870720986724
244,1.6414924756240544993373726790441
245,1.6423161231710815433578391263712
246,1.6431364156879305285333872554858
247,1.6439533804145078873877045960330
248,1.6447670442604071674389228693799
249,1.6455774338102273518169719087934
250,1.6463845753287878927510078447266
251,1.6471884947662383573401912763313
252,1.6479892177630654835105915484562
253,1.6487867696550027177629203144393
254,1.6495811754778418909711483067268
255,1.6503724599721509116631768652367
256,1.6511606475878975615535896946096
257,1.6519457624889857840745623744401
258,1.6527278285577009099669743706248
259,1.6535068693990706227846289292897
260,1.6542829083451420500189398453587
261,1.6550559684591752929043876495969
262,1.6558260725397581196394785581886
263,1.6565932431248406719133840391140
264,1.6573575024956956348992525073716
265,1.6581188726808023952500530020560
266,1.6588773754596573541375023211849
267,1.6596330323665136078742324146235
268,1.6603858646940500291269899764861
269,1.6611358934969740179279594573857
270,1.6618831395955536459173463994115
271,1.6626276235790884770622190083038
272,1.6633693658093130437041899640587
273,1.6641083864237404203388918090534
274,1.6648447053389431034336775895622
275,1.6655783422537750721513517677870
276,1.6663093166525333076212276705615
277,1.6670376478080662540600874730589
278,1.6677633547848209756793425160427
279,1.6684864564418405118361545501426
280,1.6692069714357035232868841046113
281,1.6699249182234141183594555365154
282,1.6706403150652393553056616263050
283,1.6713531800274976332737077350548
284,1.6720635309852951284289431802089
285,1.6727713856252170824779559944989
286,1.6734767614479699683341329450305
287,1.6741796757709795922106499914602
288,1.6748801457309415339104192145164
289,1.6755781882863285733716545326467
290,1.6762738202198558359909259415400
291,1.6769670581409014976584730435696
292,1.6776579184878859344071309357905
293,1.6783464175306132224444924527033
294,1.6790325713725700254779500842039
295,1.6797163959531839564726309546442
296,1.6803979070500489993982012454882
297,1.6810771202811079226844474468424
298,1.6817540511068010011330796804886
299,1.6824287148321778491369709158188
300,1.6831011266089741158063622747000
301,1.6837713014376534534333492524558
302,1.6844392541694168522216898355050
303,1.6851049995081765144048842705183
304,1.6857685520124978452759609707219
305,1.6864299260975109896506545310773
306,1.6870891360367911769776338375415
307,1.6877461959642050570650036096454
308,1.6884011198757305048660402542712
309,1.6890539216312459836059535360854
310,1.6897046149562898014104902282164
311,1.6903532134437928563561298342324
312,1.6909997305557823830903669462679
313,1.6916441796250580937864717491636
314,1.6922865738568425177240194962201
315,1.6929269263304048591544941226884
316,1.6935652500006597491117068129741
317,1.6942015576997384297887482446022
318,1.6948358621385377227449467766468
319,1.6954681759082439225223749683377
320,1.6960985114818316169488800567923
321,1.6967268812155413530799882713773
322,1.6973532973503322632304865600784
323,1.6979777720133131651528264623141
324,1.6986003172191511135225486896980
325,1.6992209448714591647309134362956
326,1.6998396667641615922314656787026
327,1.7004564945828393732165814986201
328,1.7010714399060531358390829141998
329,1.7016845142066485418585361199758
330,1.7022957288530405363999236809701
331,1.7029050951104779034217006740736
332,1.7035126241422891881403891186174
333,1.7041183270111103649700789909147
334,1.7047222146800924350064834278551
335,1.7053242980140932679917421413766
336,1.7059245877808497468183113430942
337,1.7065230946521330868223401454637
338,1.7071198292048883887255179233324
339,1.7077148019223544897380112513295
340,1.7083080231951702041699674125386
341,1.7088995033224626671361423440220
342,1.7094892525129202785107546885936
343,1.7100772808858498849290642759565
344,1.7106635984722181935514595832505
345,1.7112482152156792369327315688073
346,1.7118311409735853638004508375710
347,1.7124123855179853211105011625480
348,1.7129919585366062391138043138847
349,1.7135698696338230643689752705329
350,1.7141461283316129830527664054742
351,1.7147207440704969221829696416767
352,1.7152937262104678111310957525319
353,1.7158650840319048878161045150976
354,1.7164348267364754640682100334378
355,1.7170029634480245154607286840213
356,1.7175695032134503054135580072727
357,1.7181344550035692826278755080410
358,1.7186978277139694958752729411800
359,1.7192596301658482713033152901459
360,1.7198198711068430902005057767565
361,1.7203785592118474121134231631092
362,1.7209357030838179249420731040513
363,1.7214913112545678176527492644211
364,1.7220453921855510996282100899407
365,1.7225979542686362030519583295125
366,1.7231490058268677460234460311352
367,1.7236985551152193484447627589447
368,1.7242466103213342894387256719416
369,1.7247931795662586388745396867507
370,1.7253382709051625762090756000448
371,1.7258818923280527499858121778561
372,1.7264240517604746345053097760253
373,1.7269647570642048504169213727629
374,1.7275040160379377577476996627241
375,1.7280418364179570129741906014725
376,1.7285782258788035463901489669358
377,1.7291131920339317490196548954341
378,1.7296467424363570365245616572835
379,1.7301788845792966299482997828181
380,1.7307096258968003101008605030640
381,1.7312389737643740210619143051472
382,1.7317669354995934410136204693690
383,1.7322935183627121951067332301924
384,1.7328187295572596741043769862003
385,1.7333425762306320801019551399202
386,1.7338650654746773580191101033615
387,1.7343862043262697622453000568409
388,1.7349059997678779952817326487329
389,1.7354244587281275931096514912002
390,1.7359415880823547464365458416157
391,1.7364573946531518748057354362913
392,1.7369718852109085619916800042310
393,1.7374850664743453262139699134739
394,1.7379969451110388063131395572132
395,1.7385075277379412208073764401473
396,1.7390168209218937507472264932803
397,1.7395248311801334763225401897947
398,1.7400315649807938754070336640513
399,1.7405370287433974498809806722454
400,1.7410412288393447797404777345851
401,1.7415441715923960539654858863750
402,1.7420458632791458234152735261564
403,1.7425463101294937965449710300904
404,1.7430455183271095710880457877998
405,1.7435434940098887672054314399656
406,1.7440402432704066711928159185363
407,1.7445357721563665065242271737789
408,1.7450300866710398354850198328797
409,1.7455231927737019525312807667668
410,1.7460150963800647839159401062479
411,1.7465058033627015536619151031490
412,1.7469953195514667985351974104549
413,1.7474836507339128111430840793494
414,1.7479708026556989350696109501135
415,1.7484567810209979960775558025728
416,1.7489415914928962990809026118110
417,1.7494252396937900394429005752543
418,1.7499077312057752919097906380240
419,1.7503890715710358557647949377729
420,1.7508692662922239381989544979095
421,1.7513483208328376281586397292784
422,1.7518262406175944423502225479274
423,1.7523030310327987796225075268800
424,1.7527786974267068975300197123210
425,1.7532532451098857905207271847302
426,1.7537266793555695766717408393520
427,1.7541990054000108776875553483169
428,1.7546702284428272059347136755652
429,1.7551403536473462709886483210810
430,1.7556093861409430678878391958942
431,1.7560773310153762508386637425029
432,1.7565441933271209419798428852682
433,1.7570099780976933131950626362926
434,1.7574746903139780390077844117803
435,1.7579383349285464443271259482483
436,1.7584009168599732481360214215127
437,1.7588624409931500645892821574176
438,1.7593229121795946436886026345003
439,1.7597823352377565329411325649594
440,1.7602407149533202313208699200523
441,1.7606980560795029954929563894459
442,1.7611543633373508620545695785697
443,1.7616096414160325335988777590484
444,1.7620638949731257480852256857295
445,1.7625171286349054622897253805089
446,1.7629693469966248737990372339115
447,1.7634205546227964508367103020362
448,1.7638707560474661882424373163778
449,1.7643199557744889302320602536550
450,1.7647681582777969125027725224160
451,1.7652153680016690269059680979125
452,1.7656615893609936501640557024169
453,1.7661068267415307798349628897908
454,1.7665510845001698666068973999984
455,1.7669943669651869669308167467864
456,1.7674366784364965131306110881272
457,1.7678780231859023968367130544805
458,1.7683184054573447617853555422732
459,1.7687578294671450200544858148189
460,1.7691962994042487342282075075806
461,1.7696338194304642153672255564506
462,1.7700703936807000499914583439666
463,1.7705060262632001600013452723599
464,1.7709407212597745566087652201715
465,1.7713744827260297571737414546431
466,1.7718073146915959958145338763042
467,1.7722392211603505084744963419780
468,1.7726702061106419082636590286587
469,1.7731002734955081279490333953073
470,1.7735294272428954543126045958143
471,1.7739576712558729216720711181334
472,1.7743850094128463623612304477082
473,1.7748114455677674652666278690707
474,1.7752369835503453466070499200783
475,1.7756616271662495559130550254709
476,1.7760853801973170312122712789990
477,1.7765082464017533366264635098474
478,1.7769302295143328585778240010991
479,1.7773513332465968502045926942885
480,1.7777715612870497187857311221445
481,1.7781909173013521072727062682611
482,1.7786094049325143389431633477348
483,1.7790270278010856054050049629497
484,1.7794437895053417179407824630323
485,1.7798596936214728993098152959229
486,1.7802747437037662010460877682191
487,1.7806889432847893952834250232998
488,1.7811022958755709378480319293966
489,1.7815148049657792309789495498177
490,1.7819264740238990489822049382162
491,1.7823373064974072612898580474086
492,1.7827473058129464413010713845730
493,1.7831564753764963362081822526387
494,1.7835648185735442920457078792454
495,1.7839723387692528266619928583026
496,1.7843790393086275952418640751509
497,1.7847849235166814341095479835190
498,1.7851899946985984282850492370609
499,1.7855942561398955003331584923091
500,1.785997711106583651202254723044
501,1.786400362845324599295155657944
502,1.786802214583590273157321785287
503,1.787203269529816626120685427489
504,1.787603530873559616953111931126
505,1.788003001785646204200942626840
506,1.788401685418326084532146332834
507,1.788799584905422023336434543570
508,1.789196703362478417774886302273
509,1.789593043886906323405153195444
510,1.789988609558130997861848234334
511,1.790383403437735192921820998890
512,1.790777428569602095402425745736
513,1.791170687980056532898350915923
514,1.791563184678005121096390552660
515,1.791954921655075727249156261881
516,1.792345901885754460494950073207
517,1.792736128327521264120653714872
518,1.793125603920985895522263062821
519,1.793514331590021076189212807781
520,1.793902314241895669108218864566
521,1.794289554767404679219957634597
522,1.794676056041000353546430383725
523,1.795061820920920818574490794237
