Eigenstate,Potential Energy
1,0.500000000064181683973499865993774870
2,0.64623093807005966036791343817988078
3,0.73633761093559480463279345405180264
4,0.79966528037748363671899374135194428
5,0.8480465797257628935924339223688519
6,0.8870660037409051231289819442345399
7,0.9197208338638111245066515751620021
8,0.9477838564728794537255071351919562
9,0.9723835705752487836941513952092868
10,0.9942802303200494500200546406488075
11,1.0140094058487155539914054418088228
12,1.0319621924661792679742822879884717
13,1.0484327202384967545996859093893222
14,1.0636476868490293325078673633107134
15,1.0777854734126402089167201993722524
16,1.090988949346147054868685593687686
17,1.103374305829831326283181348427732
18,1.115037306813641158939964416939531
19,1.126057812121171418816273671664117
20,1.136503115083601907437403223565765
21,1.146430448621395840964163865225976
22,1.155888896403040958955025905810387
23,1.164920870781574922382740223973758
24,1.173563270195008046647379328567962
25,1.181848395962250142790846457294445
26,1.189804686090698625187159426374567
27,1.197457308238814634368447700770943
28,1.204828643075163108769137927952897
29,1.211938681480364913673324818646418
30,1.218805353388921563540624541185055
31,1.225444801921934571800974839027954
32,1.231871613383841876037661785823751
33,1.238099011386645981297707210076805
34,1.244139021614562197346556031227405
35,1.250002612402820279424509698015239
36,1.255699815270873903101935069947937
37,1.261239828746187855010037088111977
38,1.266631108184354077855729747644190
39,1.271881443793439058439586226137449
40,1.276998028674644263719558513466522
41,1.281987518374611056141086406302040
42,1.286856083189708917870555840058204
43,1.291609454256159468591626282448748
44,1.296252964291754745971865538243012
45,1.300791583717358648872538365403796
46,1.305229952773244160751204711705867
47,1.309572410151842358351629745047067
48,1.313823018590892846508621312166151
49,1.317985587806322715983610477689275
50,1.32206369509005840758117759391708
51,1.32606070385250790331421019680453
52,1.32997978035110545107752398906026
53,1.33382390881386091073688447162532
54,1.33759590513929467807850688779791
55,1.34129842933066365054743226919973
56,1.34493399680230912857398307900211
57,1.34850498867875858116498526866267
58,1.35201366119241601814293724904999
59,1.35546215427292176413824975250072
60,1.35885249941023792173582361931426
61,1.36218662686395158367051774619578
62,1.36546637228298684885142236062699
63,1.36869348279267480797266195468731
64,1.37186962259981818454540422977850
65,1.37499637816085247721208304474852
66,1.37807526295335811014865389257752
67,1.38110772188691580703435106598233
68,1.38409513538554124325914075770949
69,1.38703882317062236031182914291743
70,1.38994004777035445802696254163448
71,1.39280001777906947663759825569305
72,1.39561989088755763820016881154913
73,1.39840077670342661055448225397330
74,1.40114373937872450842827888113094
75,1.40384980006042194519288680031651
76,1.40651993917789879202065558140436
77,1.40915509858027890277686312900443
78,1.41175618353529026479820901998580
79,1.41432406460028121571761949196044
80,1.41685957937508524085040477134896
81,1.41936353414557752418028424690317
82,1.42183670542600497542994321970546
83,1.42427984140748272191103780752770
84,1.42669366331942576213245045468140
85,1.42907886671012520197178057722479
86,1.43143612265216262882549700518483
87,1.43376607887789870835359298884886
88,1.43606936084984871069852437999325
89,1.43834657277037417089675138597634
90,1.44059829853477667147199112265015
91,1.44282510263155828314852394322645
92,1.44502753099332490208364105813575
93,1.44720611180154646696286738368493
94,1.44936135624814511056333811049314
95,1.45149375925666114636179502358910
96,1.45360380016554496864714101286793
97,1.45569194337593860248812035749623
98,1.45775863896613776561163523018270
99,1.45980432327477183205859163800007
100,1.46182941945459274706760782849208
101,1.46383433799863463848298005856290
102,1.46581947724038029526178837220613
103,1.46778522382946277004242059257385
104,1.46973195318432309802674475479735
105,1.47166002992315205067051120371369
106,1.47356980827435307843365897601864
107,1.47546163246768551488641650153117
108,1.47733583710716787491299961073422
109,1.47919274752675248622035586308183
110,1.48103268012972027323475988411194
111,1.48285594271267865127008037115504
112,1.48466283477499605521875642791121
113,1.48645364781445109122199248904795
114,1.48822866560982554201973415095176
115,1.48998816449113000817824193363748
116,1.49173241359810263574520255056235
117,1.49346167512758966787546855355861
118,1.49517620457037552686488424445611
119,1.49687625093799641931375435117671
120,1.49856205698004561490650020528746
121,1.50023385939244028204968008349517
122,1.50189188901710085047816571894224
123,1.50353637103346167800715223523663
124,1.50516752514221411879914423173762
125,1.50678556574165352425219991458184
126,1.50839070209698651031796708712410
127,1.50998313850293424717192133105230
128,1.51156307443994493996849283841659
129,1.51313070472431659617553452265954
130,1.51468621965251279311557461022741
131,1.51622980513993875522317219017693
132,1.51776164285443007332755184072908
133,1.51928191034469461668458537005068
134,1.52079078116393691252501380693089
135,1.52228842498887615954234502489496
136,1.52377500773436535421373890354183
137,1.52525069166380570090417619956925
138,1.52671563549553686471320489090653
139,1.52816999450538152011848766114941
140,1.52961392062550720250180655503479
141,1.53104756253976391215352163024036
142,1.53247106577564784708480069390411
143,1.53388457279303299080711473426712
144,1.53528822306980510160244908899955
145,1.53668215318452846204773947565279
146,1.53806649689626787880722236876666
147,1.53944138522168021973988847204895
148,1.54080694650949081733601591416778
149,1.54216330651245653942314869304912
150,1.54351058845691916800388014862385
151,1.54484891311004500046546159665710
152,1.54617839884484097231527571522126
153,1.54749916170303625112093708915186
154,1.54881131545591320088095168503165
155,1.55011497166316595280301578584994
156,1.55141023972986444883680133973179
157,1.55269722696159500454765886126827
158,1.55397603861784920941641677220236
159,1.5552467779637248373815182969442
160,1.5565095463200051051449976874501
161,1.5577644431116747743447002387804
162,1.5590115659149325586759059555201
163,1.5602510105027546892433920708474
164,1.5614828708890642747212641233551
165,1.5627072393715550565203821155720
166,1.5639242065732200745339722129125
167,1.5651338614826324757639492112583
168,1.5663362914930211547239449581395
169,1.5675315824401862876921954346722
170,1.5687198186392945039135042934154
171,1.5699010829205938881936036166412
172,1.5710754566640866815276291375266
173,1.5722430198331950820765943441459
174,1.5734038510074559899896300024632
175,1.5745580274142786809888531218477
176,1.5757056249597951150535227941738
177,1.5768467182588361407250584870564
178,1.5779813806640627494134738229038
179,1.5791096842942788246355154621938
180,1.5802317000619563325680023998401
181,1.5813474976999956024872240304283
182,1.5824571457877483924648872461472
183,1.5835607117763267895795915639862
184,1.5846582620132221861650137266074
185,1.5857498617662561402039277308552
186,1.5868355752468840884721947313004
187,1.5879154656328757129165078097012
188,1.5889895950903873965655774146742
189,1.5900580247954505000484462415078
190,1.5911208149548911097805021320594
191,1.5921780248267004803516908774265
192,1.5932297127398725533024980717179
193,1.5942759361137268561171990022993
194,1.5953167514767301221988499276689
195,1.5963522144848345641660957011238
196,1.5973823799393464923521335029211
197,1.5984073018043396538081691217698
198,1.5994270332236274537703359966070
199,1.6004416265373068934255411678155
200,1.6014511332978881641549898879299
201,1.6024556042860208746548997522933
202,1.6034550895258302870648209068827
203,1.6044496382998742168053642240126
204,1.6054392991637322110075522021463
205,1.6064241199602369708656507561706
206,1.6074041478333610366318896407837
207,1.6083794292417646058993255889755
208,1.6093500099720187065984526999727
209,1.6103159351515094675575491773772
210,1.6112772492610349822470052298407
211,1.6122339961471021246866229339713
212,1.6131862190339335446606680063943
213,1.6141339605351892201511696097962
214,1.6150772626654175426962994598099
215,1.6160161668512351419219739541203
216,1.6169507139422494037212810850419
217,1.6178809442217276411408342899774
218,1.6188068974170218904414133448773
219,1.6197286127097526052876092068468
220,1.6206461287457637572106373064711
221,1.6215594836448472446534363731599
222,1.6224687150102538079821354563215
223,1.6233738599379840113127335993755
224,1.6242749550258743504716214948167
225,1.6251720363824810436503017252432
226,1.6260651396357650427162149183134
227,1.6269542999415869080441861057733
228,1.6278395519920133570900975149681
229,1.6287209300234426388688986294326
230,1.6295984678245534205950748643981
231,1.6304721987440789757695134499008
232,1.6313421556984170826465786963031
233,1.6322083711790706185999942573000
234,1.6330708772599349964680620914564
235,1.6339297056044256139917609786634
236,1.6347848874724550151294841614257
237,1.6356364537272633833900358291254
238,1.6364844348421040982100429838227
239,1.6373288609067897899705129777110
240,1.6381697616341010470854231704406
241,1.6390071663660620565250759934876
242,1.6398411040800860337395897854535
243,1.6406716033949944727716602676653
244,1.6414986925769119048086860135500
245,1.6423223995450405383017554566552
246,1.6431427518773172992342807659563
247,1.6439597768159546533415360846307
248,1.6447735012728727908522733662570
249,1.6455839518350181422840718082969
250,1.6463911547695786094307739587776
251,1.6471951360290934109863570810791
252,1.6479959212564603407386938391439
253,1.6487935357898455099695208578104
254,1.6495880046674952303526360860841
255,1.6503793526324539168143718107788
256,1.6511676041371880951584254267144
257,1.6519527833481229052359331410450
258,1.6527349141500875437557324525423
259,1.6535140201506764496228223116676
260,1.6542901246845266175475377624736
261,1.6550632508175113530207567951108
262,1.6558334213508551934269063983100
263,1.6566006588251688452208172378396
264,1.6573649855244095873674485701474
265,1.6581264234797656656177455030156
266,1.6588849944734668446998004301530
267,1.6596407200425243310045470914951
268,1.6603936214824000988134762836211
269,1.6611437198506098893157330329988
270,1.6618910359702556058890795752815
271,1.6626355904334963889301978574619
272,1.6633774036049523491305462563743
273,1.6641164956250484016425082606437
274,1.6648528864132954094867718696428
275,1.6655865956715125111117889454129
276,1.6663176428869889097930548702140
277,1.6670460473355926082194928498041
278,1.6677718280848178422496698020295
279,1.6684950039967827163432496398067
280,1.6692155937311691335735775431711
281,1.6699336157481129090867996857711
282,1.6706490883110415633179948404143
283,1.6713620294894630074547901989354
284,1.6720724571617022777272241512455
285,1.6727803890175931258317093379398
286,1.6734858425611204902791584013002
287,1.6741888351130189080063975927337
288,1.6748893838133232680765818728615
289,1.6755875056238765555804329369580
290,1.6762832173307953183180152458342
291,1.6769765355468906972520769231579
292,1.6776674767140479056925150300220
293,1.6783560571055680630408493235326
294,1.6790422928284674200643208614558
295,1.6797261998257360629000548771555
296,1.6804077938785636814078747630535
297,1.6810870906085223336545390046739
298,1.6817641054797155233401125409103
299,1.6824388538008903930839800510801
300,1.6831113507275147842352548363332
301,1.6837816112638195747067510572209
302,1.6844496502648083878271481991159
303,1.6851154824382318454047677280294
304,1.6857791223465299425963386907743
305,1.6864405844087439731746737568715
306,1.6870998829023972684818393648749
307,1.6877570319653419321111291733841
308,1.6884120455975790488368893982513
309,1.6890649376630484571500450955849
310,1.6897157218913884206389457031614
311,1.6903644118796687932140432326733
312,1.6910110210940951914061202021074
313,1.6916555628716855665848316668049
314,1.6922980504219209814711305614034
315,1.6929384968283699106897817432060
316,1.6935769150502874411061234309566
317,1.6942133179241869106580426252357
318,1.6948477181653893370356941294300
319,1.6954801283695477778789442049989
320,1.6961105610141466238626922929301
321,1.6967390284599797437159986429328
322,1.6973655429526035957218533716179
323,1.6979901166237688198519589161301
324,1.6986127614928292877957723943720
325,1.6992334894681303729847213070614
326,1.6998523123483746779612720701651
327,1.7004692418239680399722499923161
328,1.7010842894783430041089352742671
329,1.7016974667892647389808062836570
330,1.7023087851301158267201610322683
331,1.7029182557711613660276322780475
332,1.7035258898807954496181353785074
333,1.7041316985267693947431458673110
334,1.7047356926773999109349253252419
335,1.7053378832027615200303753233486
336,1.7059382808758592866541862821774
337,1.7065368963737847315362344703928
338,1.7071337402788559866489683470671
339,1.7077288230797382568051689077636
340,1.7083221551725506791956303411385
341,1.7089137468619552945847520271617
342,1.7095036083622306274562743703551
343,1.7100917497983295130441368075953
344,1.7106781812069211651056034303249
345,1.7112629125374193039221264404119
346,1.7118459536529938194776712867178
347,1.7124273143315695353316545137819
348,1.7130070042668088850715798493154
349,1.7135850330690820464336513642299
350,1.7141614102664220756013227352171
351,1.7147361453054671294551773117986
352,1.7153092475523894583142122127538
353,1.7158807262938104537262288082207
354,1.7164505907377031659644911472129
355,1.7170188500142826567005944834656
356,1.7175855131768823968322336402580
357,1.7181505892028199487039735588225
358,1.7187140869942511769260877471793
359,1.7192760153790087331374353234381
360,1.7198363831114337528452243198446
361,1.7203951988731925094255765168717
362,1.7209524712740845071071306591255
363,1.7215082088528366087758836981347
364,1.7220624200778882228240854776179
365,1.7226151133481657856481635007675
366,1.7231662969938454177020694537805
367,1.7237159792771066453603706306772
368,1.7242641683928739775737715227452
369,1.7248108724695509701130501346042
370,1.7253560995697424908376651309304
371,1.7258998576909680395637068800844
372,1.7264421547663650792807675530628
373,1.7269829986653823457076641244054
374,1.7275223971944674439500969084604
375,1.7280603580977394241137885915476
376,1.7285968890576577923834023074493
377,1.7291319976956797470757295369341
378,1.7296656915729088073809945952832
379,1.7301979781907366749053280496781
380,1.7307288649914750850936793331215
381,1.7312583593589805242928559033525
382,1.7317864686192689309504263894342
383,1.7323132000411250559475301952701
384,1.7328385608367014461060811975576
385,1.7333625581621106724741563064002
386,1.7338851991180114623942542418098
387,1.7344064907501844850524343949675
388,1.7349264400501017276742954873434
389,1.7354450539554901374243705247460
390,1.7359623393508867184976284415289
391,1.7364783030681854017317950946593
392,1.7369929518871792955078008483202
393,1.7375062925360957918325287871063
394,1.7380183316921231091058186635567
395,1.7385290759819311288647220446287
396,1.7390385319821861777973512851309
397,1.7395467062200593853694567666143
398,1.7400536051737286256412492718280
399,1.7405592352728726095161458449970
400,1.7410636028991614278424397034988
401,1.7415667143867395947558656644203
402,1.7420685760227023369603677556574
403,1.7425691940475679501783483286103
404,1.7430685746557441163550163153832
405,1.7435667239959856475788226233720
406,1.7440636481718497662689154992107
407,1.7445593532421460388812991123708
408,1.7450538452213784668720867389430
409,1.7455471300801825965475162939548
410,1.7460392137457601628457750934356
411,1.7465301021023055276431320613575
412,1.7470198009914274957653926165897
413,1.7475083162125675883661374884120
414,1.7479956535234111981305516270789
415,1.7484818186402959108959665939649
416,1.7489668172386134239612121259723
417,1.7494506549532079102289175867281
418,1.7499333373787679920830982470086
419,1.7504148700702166041983344290279
420,1.7508952585430937278978394939784
421,1.7513745082739359499587468542476
422,1.7518526247006521281931294873357
423,1.7523296132228930006883270281949
424,1.7528054792024183531923572823829
425,1.7532802279634581247752652451429
426,1.7537538647930710594048703365977
427,1.7542263949414983888695982898474
428,1.7546978236225125615678904519460
429,1.7551681560137649303919463364273
430,1.7556373972571252626771317429046
431,1.7561055524590205767490351242818
432,1.7565726266907704554863199095142
433,1.7570386249889141757131732412259
434,1.7575035523555407523001985736990
435,1.7579674137586097216077077023295
436,1.7584302141322705662438988123153
437,1.7588919583771789435086039584583
438,1.7593526513608087006137424996686
439,1.7598122979177603590327995162267
440,1.7602709028500671402618539402063
441,1.7607284709274956939423138184757
442,1.7611850068878450931102863712021
443,1.7616405154372437454100606025990
444,1.7620950012504388408158924371016
445,1.7625484689710876677171937967610
446,1.7630009232120418229352445444922
447,1.7634523685556314860974125040753
448,1.7639028095539429778458849855770
449,1.7643522507290974436965031424187
450,1.7648006965735228173245904877059
451,1.7652481515502265677462693577536
452,1.7656946200930620731396393900282
453,1.7661401066069943658149686060983
454,1.7665846154683616387481331269058
455,1.7670281510251361390477599087164
456,1.7674707175971797468970461008590
457,1.7679123194764989372423610690463
458,1.7683529609274955217390293868605
459,1.7687926461872156865225165780354
460,1.7692313794655969698353721614340
461,1.7696691649457110309596402897655
462,1.7701060067840054252720024748375
463,1.7705419091105429910008280421152
464,1.7709768760292370104444235972789
465,1.7714109116180861162805587718970
466,1.7718440199294060756094293006170
467,1.7722762049900577342322655258345
468,1.7727074708016761388460613858068
469,1.7731378213408933159390140304157
470,1.7735672605595622340616123770907
471,1.7739957923849762187751993915394
472,1.7744234207200881201301974624320
473,1.7748501494437245858778099013136
474,1.7752759824108029467629331671052
475,1.7757009234525396390686394190647
476,1.7761249763766626806911313197534
477,1.7765481449676185362777780981821
478,1.7769704329867780500138127899528
479,1.7773918441726403381062133444309
480,1.7778123822410350382778221972521
481,1.7782320508853214699431192020493
482,1.7786508537765882767222647266410
483,1.7790687945638489342368542399784
484,1.7794858768742359459524531047955
485,1.7799021043131952070429706339200
486,1.7803174804646751242386953284838
487,1.7807320088913173436982205308905
488,1.7811456931346436867237114417031
489,1.7815585367152425248459705092754
490,1.7819705431329524608325925740053
491,1.7823817158670454534268226929991
492,1.7827920583764079776137125706184
493,1.7832015740997201991320284039801
494,1.7836102664556342610817466587624
495,1.7840181388429498790236518311525
496,1.7844251946407904930144426855800
497,1.7848314372087756662084616655451
498,1.7852368698871936795154701386594
499,1.7856414959971718239754423671490
500,1.786045318840846525786362119371
501,1.786448341701529054575875559142
502,1.786850567843874274776801919236
503,1.787252000514043913038580335438
504,1.787652642939872190448512856049
505,1.788052498331026672099043959969
506,1.788451569879170069306679891136
507,1.788849860758120847855330214971
508,1.789247374124012287740651082492
509,1.789644113115448230953209323270
510,1.790040080853661576360340774640
511,1.790435280442668758743906006794
512,1.790829714969424118340127351961
513,1.791223387503972782950704051941
514,1.791616301099602745599535671771
515,1.792008458792996518735565756025
516,1.792399863604380582267777431602
517,1.792790518537673707326894652778
518,1.793180426580635948493692104702
519,1.793569590705015094019062419304
520,1.793958013866693438833553260292
521,1.794345699005831683606380552842
522,1.794732649047014244312848160864
523,1.795118866899392417983379978215
