Eigenstate,Potential Energy
1,0.500000000025922797248031701848143508
2,0.64623093782032504986121915232397883
3,0.73633761020201709230364119354657926
4,0.79966527884951804745946226722776461
5,0.8480465770789984142364530190329173
6,0.8870659996452434012579240036246571
7,0.9197208279864789326814235420675797
8,0.9477838484796840154857319231381835
9,0.9723835601311605861407504956473179
10,0.9942802170894972035611840731928750
11,1.0140093894957456430121627749521240
12,1.0319621726545461470453880785698862
13,1.0484326966317157500841829245079324
14,1.0636476591104078073087116559781069
15,1.0777854412052956729910104604229548
16,1.090988912333017074564507604197588
17,1.103374263673678097736735586639201
18,1.115037259177052501853852305289566
19,1.126057758666559303168248195780314
20,1.136503055473199238586264442548716
21,1.146430382517251988526333202962195
22,1.155888823467016361718127491283580
23,1.164920790675335001429097907730303
24,1.173563182580016591942612979494209
25,1.181848300499762292838347601557224
26,1.189804582441753527622287414449815
27,1.197457196064227852943910243025798
28,1.204828522035518826090332939033740
29,1.211938551236007967327797003455894
30,1.218805213599949344626049755504970
31,1.225444652248188808406602961939466
32,1.231871453484900319365510189878255
33,1.238098840921814008395921359367539
34,1.244138840242864341566794064146089
35,1.250002419782991697491711333631129
36,1.255699611061351785941887078131788
37,1.261239612605102788102778780271183
38,1.266630879769521355786333137878535
39,1.271881202762349957438614260348430
40,1.276997774684457275275760655229017
41,1.281987251082143084192414713520374
42,1.286855802251426441608400469779264
43,1.291609159328169672525876654882899
44,1.296252655029796618584400090859387
45,1.300791259776794050920826381711003
46,1.305229613809048864061664775615688
47,1.309572055818597055756159337612942
48,1.313822648542774133420654355505277
49,1.317985201697094043977130308433946
50,1.32206329257306101022306515110394
51,1.32606028458065169440367404520524
52,1.32997934397685989536355842610407
53,1.33382345498924586711337715538449
54,1.33759543351587121519491090232201
55,1.34129793955952483471934349901490
56,1.34493348853407078383127516480897
57,1.34850446156355002123437079902912
58,1.35201311487987075012573203380270
59,1.35546158841216816361266742992512
60,1.35885191364988987898487901520676
61,1.36218602085209912071180059451650
62,1.36546574566718670692254674394382
63,1.36869283521994100510632874693992
64,1.37186895371661254285000095765103
65,1.37499568761307511945732553796808
66,1.37807455038633792524108381759249
67,1.38110698694540088395393343987523
68,1.38409437771368927301582650226094
69,1.38703804241199100546945296323812
70,1.38993924356789168933145287609148
71,1.39279918977510387627640303736556
72,1.39561903872378866921091279271183
73,1.39839990002091485189199222899088
74,1.40114283781788185519120700026070
75,1.40384887326100177350331576378387
76,1.40651898677898608804295362178924
77,1.40915412022028035535493916369768
78,1.41175517885192432118366309819938
79,1.41432303323056809985486825101466
80,1.41685852095533693367870851101867
81,1.41936244831138770540645333189779
82,1.42183559181223892621969390333620
83,1.42427869964826718794129221089940
84,1.42669249304813877644119711442377
85,1.42907766755938586703658906413468
86,1.43143489425382085729649073314404
87,1.43376482086302492186115980442824
88,1.43606807284872349615083339196193
89,1.43834525441247789367693994834999
90,1.44059694944877904493958969214813
91,1.44282372244530789384449461223359
92,1.44502611933383869003330516238048
93,1.44720466829499916046573860823634
94,1.44935988051985861485376710753669
95,1.45149225093109388551913055898779
96,1.45360225886628118012895653552992
97,1.45569036872567758365476504853043
98,1.45775703058668307160530127185533
99,1.45980268078702042439462443406429
100,1.46182774247852409229072577298877
101,1.46383262615329975623551647593872
102,1.46581773014389075510592780423256
103,1.46778344109897963637295980280491
104,1.46973013443604582240518198862118
105,1.47165817477230731090617920644550
106,1.47356791633518356373179553895255
107,1.47545970335343865637760834461067
108,1.47733387043008452087263794245079
109,1.47919074289805552128119836754566
110,1.48103063715960318088966246849883
111,1.48285386101029401895645909075000
112,1.48466071394844402127010120064100
113,1.48645148747076773296598017882782
114,1.48822646535497120429633864562758
115,1.48998592392997757154524218441427
116,1.49173013233442572363216412714195
117,1.49345935276405079194100306035422
118,1.49517384070851416980585173385058
119,1.49687384517821705436844998325799
120,1.49855960892160566128735719008945
121,1.50023136863343799553459380484232
122,1.50188935515446314838275766497528
123,1.50353379366293189775358918446312
124,1.50516490385833970929031534590704
125,1.50678290013777366925303448227929
126,1.50838799176521968303876231704872
127,1.50998038303416569524144933199980
128,1.51156027342381409997735187142497
129,1.51312785774920443696302395088492
130,1.51468332630552908696596026221227
131,1.51622686500690927612984645453913
132,1.51775865551988372147556323470039
133,1.51927887539185046829509294127977
134,1.52078769817469119419678433930433
135,1.52228529354378914621771365229811
136,1.52377182741264818988869175796821
137,1.52524746204330714119385407660485
138,1.52671235615272994037609806891015
139,1.52816666501535012063413559238446
140,1.52961054056193257878851950673717
141,1.53104413147491109750419348208226
142,1.53246758328035199538997314308740
143,1.53388103843668563112599047334702
144,1.53528463642034030813340377127739
145,1.53667851380840893854125576042880
146,1.53806280435847095645470273006773
147,1.53943763908568376756271691341622
148,1.54080314633725906409002911976579
149,1.54215945186442580602384066367679
150,1.54350667889198350946865234940573
151,1.54484494818554175635874212745774
152,1.54617437811653622467314437137183
153,1.54749508472511018882148841779155
154,1.54880718178094538941682455502622
155,1.55011078084212050840195594229343
156,1.55140599131207511586578349688369
157,1.55269292049475013512586876802172
158,1.55397167364797664415125296088032
159,1.5552423540351766861314035598920
160,1.5565050629754424267014741250692
161,1.5577598998920521539153688259798
162,1.5590069623594825820384584970944
163,1.5602463461489723124296865896731
164,1.5614781452726910880786485364881
165,1.5627024520265634419857088366928
166,1.5639193570317972549443395795161
167,1.5651289492751644550156354785635
168,1.5663313161480765475790347523136
169,1.5675265434845000380201840663914
170,1.5687147155977514901422811808037
171,1.5698959153162124147319601626747
172,1.5710702240180018549082269404043
173,1.5722377216646420705555123219747
174,1.5733984868337531653253699013244
175,1.5745525967508106411101725261568
176,1.5757001273199955863120140687475
177,1.5768411531541707584146813140479
178,1.5779757476040117152252720297734
179,1.5791039827863194397015151558910
180,1.5802259296115454047341650365150
181,1.5813416578105517264408045260940
182,1.5824512359606341013266956030392
183,1.5835547315108305765568721096862
184,1.5846522108065403948456492257475
185,1.5857437391134747220570009468793
186,1.5868293806409602261050813005808
187,1.5879091985646193076222656267319
188,1.5889832550484424186789303771791
189,1.5900516112662762006122738268072
190,1.5911143274227430920084734612959
191,1.5921714627736116293561188251822
192,1.5932230756456338225394777924951
193,1.5942692234558679089843799752892
194,1.5953099627304998272037051880007
195,1.5963453491231813420648094865289
196,1.5973754374328985136420844783412
197,1.5984002816213848849382654667979
198,1.5994199348300935504159902143769
199,1.6004344493967409391555655310531
200,1.6014438768714362528003143995564
201,1.6024482680324075346686461533784
202,1.6034476729013377461447085213124
203,1.6044421407583215050299486993052
204,1.6054317201564541007175750078446
205,1.6064164589360627515023156633621
206,1.6073964042385931227228619104563
207,1.6083716025201569763628894952348
208,1.6093420995647551735157178532076
209,1.6103079404971817725406442600899
210,1.6112691697956207185104092587063
211,1.6122258313039424829066377045355
212,1.6131779682437108806858118559168
213,1.6141256232259044426041535181241
214,1.6150688382623673184854176418867
215,1.6160076547769889176566988942427
216,1.6169421136166262410032549345302
217,1.6178722550617728636781884042491
218,1.6187981188369835409103504149243
219,1.6197197441210577098398395087393
220,1.6206371695569943955020955648805
221,1.6215504332617164232436403060018
222,1.6224595728355811349280606625208
223,1.6233646253716711697563081356442
224,1.6242656274648803689924178465078
225,1.6251626152207973611300775865652
226,1.6260556242643903654333535390992
227,1.6269446897485018566908804766813
228,1.6278298463621549013753008447500
229,1.6287111283386783173438080537173
230,1.6295885694636553433087445377803
231,1.6304622030826976073331019098312
232,1.6313320621090548032561946197787
233,1.6321981790310550605380676883572
234,1.6330605859193921535727033992858
235,1.6339193144342527215540072250084
236,1.6347743958322931976465247254316
237,1.6356258609734700675715622815799
238,1.6364737403277251886027955744548
239,1.6373180639815316045342219163285
240,1.6381588616443020100197276847380
241,1.6389961626546641456146011526399
242,1.6398299959866059794505290954286
243,1.6406603902554947062982611219987
244,1.6414873737239712522344893919321
245,1.6423109743077246580041346851872
246,1.6431312195811488596256337629190
247,1.6439481367828832480044104501760
248,1.6447617528212445880883768375677
249,1.6455720942795452660604326256594
250,1.6463791874213082486679262954351
251,1.6471830581953766540953370217249
252,1.6479837322409207322742863501108
253,1.6487812348923473262282774048945
254,1.6495755911841114707034476135971
255,1.6503668258554340075087808254144
256,1.6511549633549253023268637833890
257,1.6519400278451214537335617443761
258,1.6527220432069294384795367515173
259,1.6535010330439879958781795479291
260,1.6542770206869446369984599526975
261,1.6550500291976490917138448029148
262,1.6558200813732679183334954592054
263,1.6565871997503191256965255376074
264,1.6573514066086322578811551317102
265,1.6581127239752324660552895995676
266,1.6588711736281507344994497499552
267,1.6596267771001634733329878006877
268,1.6603795556824615109412646284306
269,1.6611295304282527553012882992179
270,1.6618767221562942476290453957545
271,1.6626211514543628915831694097254
272,1.6633628386826588368674905168366
273,1.6641018039771489596251715164434
274,1.6648380672528476479200885335206
275,1.6655716482070387671628257569375
276,1.6663025663224370831119059651726
277,1.6670308408702966257416092315868
278,1.6677564909134577479020921983321
279,1.6684795353093443812178501264114
280,1.6691999927129035820720531090801
281,1.6699178815794952564814692293883
282,1.6706332201677295601117636474322
283,1.6713460265422551858611784317718
284,1.6720563185764956955291467808465
285,1.6727641139553407028124737077402
286,1.6734694301777879323552470692109
287,1.6741722845595412141256547772278
288,1.6748726942355608148771681675682
289,1.6755706761625707547395797468022
290,1.6762662471215238414489674883224
291,1.6769594237200222631383587673970
292,1.6776502223946966245770413279287
293,1.6783386594135473326146644860720
294,1.6790247508782433677265305650632
295,1.6797085127263805287858573047171
296,1.6803899607337067366050009153129
297,1.6810691105163043279518310073033
298,1.6817459775327386567737923029540
299,1.6824205770861698054666726173701
300,1.6830929243264291567726783718894
301,1.6837630342520612377242432129707
302,1.6844309217123329285454631059705
303,1.6850966014092072096186900192123
304,1.6857600878992850240242639264385
305,1.6864213955957166841589656373578
306,1.6870805387700820856315292095637
307,1.6877375315542369103874158247285
308,1.6883923879421322974901617908204
309,1.6890451217916040708234676647368
310,1.6896957468261318588592002066636
311,1.6903442766365717013928775734758
312,1.6909907246828596563780683723255
313,1.6916351042956877996071378115856
314,1.6922774286781544215108915301797
315,1.6929177109073877407189104590854
316,1.6935559639361445100216742236083
317,1.6941922005943810533380976470815
318,1.6948264335908020849324780604266
319,1.6954586755143844524419655910997
320,1.6960889388358758049715023469123
321,1.6967172359092721051897150383881
322,1.6973435789732700998557157523651
323,1.6979679801526982628148633750382
324,1.6985904514599251876023155531560
325,1.6992110047962471916343238906930
326,1.6998296519532533692127987071461
327,1.7004464046141709140977726360771
328,1.7010612743551879008415647390157
329,1.7016742726467584997419656110751
330,1.7022854108548870570798590177467
331,1.7028947002423924792164215300788
332,1.7035021519701539817728807230088
333,1.7041077770983385824295638978334
334,1.7047115865876085213489761671003
335,1.7053135913003129241363592573159
336,1.7059138020016597653707997740909
337,1.7065122293608710049337415254500
338,1.7071088839523219559681954991526
339,1.7077037762566609489567671875611
340,1.7082969166619153832396301303096
341,1.7088883154645798795315934246180
342,1.7094779828706890305683655166442
343,1.7100659289968743876526559770883
344,1.7106521638714056767880910676304
345,1.7112366974352180637163120149345
346,1.7118195395429229426333748227291
347,1.7124006999638058139250249263103
348,1.7129801883828080626263070206272
349,1.7135580144014961825110748043623
350,1.7141341875390159881333849379112
351,1.7147087172330339024060723563491
352,1.7152816128406650020628987623702
353,1.7158528836393871053647247261690
354,1.7164225388279423165076222513187
355,1.7169905875272263919989682405356
356,1.7175570387811641387726274702024
357,1.7181219015575740830705568052286
358,1.7186851847490216540804819692153
359,1.7192468971736566274580538774112
360,1.7198070475760437666419239727325
361,1.7203656446279784068205080316429
362,1.7209226969292934631406608298579
363,1.7214782130086524587614902493685
364,1.7220322013243335967383479620755
365,1.7225846702650031120947786296837
366,1.7231356281504767817436092159703
367,1.7236850832324724842590602780175
368,1.7242330436953505982213150817276
369,1.7247795176568468716706092974885
370,1.7253245131687934758395108651344
371,1.7258680382178310964647992416900
372,1.7264101007261110191520047251854
373,1.7269507085519871755009933911729
374,1.7274898694907024584660499169380
375,1.7280275912750599985136754515149
376,1.7285638815760908567879778979773
377,1.7290987480037099244879834779332
378,1.7296321981073631958619971777162
379,1.7301642393766682546155507458254
380,1.7306948792420447304910177431856
381,1.7312241250753376014495211432986
382,1.7317519841904304596185064100425
383,1.7322784638438534156611746006838
384,1.7328035712353806052623907274373
385,1.7333273135086209189793487068520
386,1.7338496977516026141036558473318
387,1.7343707309973475578634845130544
388,1.7348904202244390387574516980804
389,1.7354087723575838206966141042898
390,1.7359257942681656290525653237281
391,1.7364414927747903855421190299898
392,1.7369558746438268003161184213194
393,1.7374689465899397947280124367199
394,1.7379807152766153358683621980850
395,1.7384911873166795397270853030696
396,1.7390003692728116938391592377091
397,1.7395082676580508293107792943386
398,1.7400148889362958503480303253913
399,1.7405202395227977870680021970696
400,1.7410243257846484715372082193509
401,1.7415271540412616859457074595087
402,1.7420287305648475281204019736266
403,1.7425290615808828151056513101212
404,1.7430281532685754178881794384533
405,1.7435260117613199926994697396183
406,1.7440226431471512179176925716240
407,1.7445180534691916532767717443188
408,1.7450122487260917245641691708566
409,1.7455052348724646948721068380877
410,1.7459970178193191368681267288158
411,1.7464876034344831660903365085705
412,1.7469769975430240178445073408128
413,1.7474652059276640467499805162357
414,1.7479522343291895727677431218573
415,1.7484380884468568576607145867897
416,1.7489227739387916415070633127019
417,1.7494062964223850877411753775215
418,1.7498886614746832999464126213230
419,1.7503698746327746888992596581273
420,1.7508499413941701717747019356180
421,1.7513288672171801556843076133824
422,1.7518066575212875871379633182059
423,1.7522833176875149035567001413270
424,1.7527588530587885005496684428662
425,1.7532332689402970943025941078947
426,1.7537065705998475859054301306303
427,1.7541787632682159122365359016519
428,1.7546498521394928970778830980136
429,1.7551198423714290148359850895515
430,1.7555887390857709289608780687112
431,1.7560565473685973087034998663614
432,1.7565232722706510737120243310744
433,1.7569889188076634043494476771301
434,1.7574534919606806156557804217002
435,1.7579169966763817186130742564598
436,1.7583794378673945696896851175814
437,1.7588408204126087700166294515314
438,1.7593011491574842962449931090016
439,1.7597604289143565443728928792348
440,1.7602186644627388577379553959144
441,1.7606758605496196990121365311684
442,1.7611320218897580298274613402931
443,1.7615871531659765457108041937033
444,1.7620412590294473856804572939519
445,1.7624943440999796471453784949060
446,1.7629464129662997304371895122310
447,1.7633974701863316821250809813024
448,1.7638475202874707552952340583418
449,1.7642965677668580272801892958723
450,1.7647446170916482272588958145351
451,1.7651916726992782768018564882503
452,1.7656377389977293846882992280146
453,1.7660828203657884390466901229986
454,1.7665269211533050857458823669914
455,1.7669700456814481168880105567253
456,1.7674121982429564663794514222651
457,1.7678533831023895082654633121800
458,1.7682936044963730537019450467934
459,1.7687328666338435604665080959470
460,1.7691711736962901973285838078554
461,1.7696085298379926129804430886632
462,1.7700449391862576225549511677619
463,1.7704804058416534154782343998130
464,1.7709149338782394455383095856860
465,1.7713485273437959718806771674625
466,1.7717811902600503816037395768311
467,1.7722129266228995744446727569188
468,1.7726437404026334251719580613108
469,1.7730736355441518003554963834367
470,1.7735026159671826540299420541827
471,1.7739306855664954693317546478639
472,1.7743578482121143436955166214702
473,1.7747841077495260684857547244318
474,1.7752094679998907070306916026006
475,1.7756339327602435937860358804533
476,1.7760575058037012684062681972524
477,1.7764801908796616776923047024579
478,1.7769019917140033213751307707629
479,1.7773229120092822310907205618323
480,1.7777429554449271770979696123085
481,1.7781621256774316535839213290901
482,1.7785804263405462113132080888295
483,1.7789978610454665175871493881169
484,1.7794144333810199632354261104795
485,1.7798301469138522934838121051662
486,1.7802450051886088474577050177088
487,1.7806590117281172550698180614181
488,1.7810721700335661877439353015385
489,1.7814844835846833910381682081897
490,1.7818959558399108621767330933794
491,1.7823065902365793066528293456733
492,1.7827163901910804619685832647377
493,1.7831253590990372633974105610893
494,1.7835335003354729456823747924697
495,1.7839408172549772730393696337117
496,1.7843473131918731417560377286853
497,1.7847529914603792407747038390572
498,1.7851578553547727153786671074521
499,1.7855619081495493311660701920678
500,1.785965153099583268644039314350
501,1.786367593440282294312498017483
502,1.786769232387745763246132864400
503,1.787170073138916921124557839780
504,1.787570118871737349368820259569
505,1.787969372745296400665980004350
506,1.788367837899981354783972742604
507,1.788765517457626142511388655043
508,1.789162414521658277489175530645
509,1.789558532177242226625494740772
510,1.789953873491425272129555502920
511,1.790348441513279096038309406133
512,1.790742239274040987226223072622
513,1.791135269787253286428507172360
514,1.791527536048901745536833349916
515,1.791919041037553175258031292640
516,1.792309787714490591321359144763
517,1.792699779023846933818245459083
518,1.793089017892739144909546488883
519,1.793477507231399386690710018180
520,1.793865249933306256069043359219
521,1.794252248875312791729048494147
522,1.794638506917775549237494279563
523,1.795024026904681181295568669767
