Eigenstate,Potential Energy
1,0.500000000036491031393478963455733284
2,0.64623093788930901755750994133391133
3,0.73633761040465212583045487655792772
4,0.79966527927158424036072042830282715
5,0.8480465778101046573389670501580834
6,0.8870660007765676241686364243810246
7,0.9197208296099354665594406947502410
8,0.9477838506875763287581587495091938
9,0.9723835630160197877713842278691645
10,0.9942802207440000592695641885171565
11,1.0140093940126700225922159447549544
12,1.0319621781267455460384614399997120
13,1.0484327031521041956371030568304997
14,1.0636476667719507401834352251774263
15,1.0777854501010044349132384513900601
16,1.090988922555945660312942759084943
17,1.103374275316921380466665984855859
18,1.115037272333745446462782034831937
19,1.126057773429876860338886208580125
20,1.136503071936356719064974165339170
21,1.146430400773505783515295710485169
22,1.155888843609664917551660333727082
23,1.164920812797719984352890313465437
24,1.173563206775524197298911560236490
25,1.181848326861824665570892201916906
26,1.189804611063850269778420844051072
27,1.197457227039887600044743620100753
28,1.204828555458320878684868396430876
29,1.211938587199583967282600105506395
30,1.218805252197984988088385378848844
31,1.225444693574425589160262576567937
32,1.231871497633137297643199857194755
33,1.238098887985909601237739575665881
34,1.244138890316738131604283621970060
35,1.250002472960626257650941354976982
36,1.255699667436794518040250700487703
37,1.261239672272467773694436487194977
38,1.266630942822991217913889928009499
39,1.271881269296177732191250212465166
40,1.276997844792968292249852483591742
41,1.281987324859736855109674431341795
42,1.286855879792578556476471080143006
43,1.291609240727433702833040038250722
44,1.296252740381806027108196817043939
45,1.300791349176264107803566527107801
46,1.305229707350778568866872223718639
47,1.309572153597471065271154401062874
48,1.313822750653764695013578767331286
49,1.317985308235262934353139196607606
50,1.32206340363356147945534876062115
51,1.32606040025873041514134712838192
52,1.32997946436785891714102166807374
53,1.33382358018860457570513172872122
54,1.33759556361912829697653144738705
55,1.34129807466232024600977656047119
56,1.34493362873214772520417617505400
57,1.34850460695275691679712865768166
58,1.35201326555616323177441945197149
59,1.35546174447161106027950771906063
60,1.35885207518865921090221744578338
61,1.36218618796648409872307363642083
62,1.36546591845359173687653787802280
63,1.36869301377488769737611344551658
64,1.37186913813674172702254334702974
65,1.37499587799514886424379837485659
66,1.37807474682724156366166029228865
67,1.38110718954214504385409339739924
68,1.38409458656341191297420897783176
69,1.38703825761195945616002242107984
70,1.38993946521550470040516236277950
71,1.39279941796789366882985956122790
72,1.39561927355942299391154611565226
73,1.39840014159719905283118262756811
74,1.40114308623276093953854256981237
75,1.40384912861256248703682449947269
76,1.40651924916545899663159627474375
77,1.40915438974004193247112457024869
78,1.41175545560349904152484378381290
79,1.41432331731263053915453892769210
80,1.41685881246671387478825963182176
81,1.41936274735106025073050263911113
82,1.42183589847934461658855881274293
83,1.42427901404210212800525551247272
84,1.42669281526815976667221445827896
85,1.42907799770521254242401777547913
86,1.43143523242523783282429835917107
87,1.43376516715998394485496246981827
88,1.43606842737134560558394959685285
89,1.43834561726105558652545718935959
90,1.44059732072377844967725477906079
91,1.44282410224737095116902286864012
92,1.44502650776378534091645402743295
93,1.44720506545382954162028046202707
94,1.44936028650875526171120445646811
95,1.45149266585142394281276255732260
96,1.45360268281959862017761009234350
97,1.45569080181372543244325225330550
98,1.45775747291139564275834081304316
99,1.45980313245052556114172273131361
100,1.46182820358314541752019142624165
101,1.46383309680155893073649234855172
102,1.46581821043850974409806178257819
103,1.46778393114288298442395876590882
104,1.46973063433236293683733398556734
105,1.47165868462437475379349125009228
106,1.47356843624654735259020627158039
107,1.47546023342785657365140360274747
108,1.47733441077152843232089342387031
109,1.47919129361071370336884647484403
110,1.48103119834788265728844537120396
111,1.48285443277882290626178089914251
112,1.48466129640207388404052968493833
113,1.48645208071457594819285098066217
114,1.48822706949426333541168585122162
115,1.48998653907028975207701360959094
116,1.49173075858152705061642726397092
117,1.49345999022394572920159542622673
118,1.49517448948744496121273429428654
119,1.49687450538266614718672142007302
120,1.49856028065829813972974225262413
121,1.50023205200934402463096452564744
122,1.50189005027680042828101174833181
123,1.50353450063916812856708786747765
124,1.50516562279619506660779824220989
125,1.50678363114522329042778974079600
126,1.50838873495049616437470122036625
127,1.50998113850576160019446687007879
128,1.51156104129048447849128447878577
129,1.51312863811996935606034395992759
130,1.51468411928967617271415517331713
131,1.51622767071399626710531444370072
132,1.51775947405974103384788142833389
133,1.51927970687458377265514395530368
134,1.52078854271068400425328658769183
135,1.52228615124370541948767240466106
136,1.52377269838743494050801039320291
137,1.52524834640419706497541417726548
138,1.52671325401124405224352259691357
139,1.52816757648330040456035476671585
140,1.52961146575142465036932908288637
141,1.53104507049834687929779028695525
142,1.53246853625043240515460886324427
143,1.53388200546641328308876550963749
144,1.53528561762302222742427837783396
145,1.53667950929765928892731475431216
146,1.53806381424821378151079910262806
147,1.53943866349015574541564028740299
148,1.54080418537101227587435244351859
149,1.54216050564233051818872062122871
150,1.54350774752923097007585258973954
151,1.54484603179764700551332862703963
152,1.54617547681934091922936594346294
153,1.54749619863478544150739409048280
154,1.54880831101399462252238734362517
155,1.55011192551538232217655850361527
156,1.55140715154272617177212568574882
157,1.55269409640030805409841146837466
158,1.55397286534630292000858646334870
159,1.5552435616444796142930924365073
160,1.5565062866142800483611095716308
161,1.5577611396793352158227786569214
162,1.5590082184144775120453113732780
163,1.5602476185913042109538484295290
164,1.5614794342223467356440433257261
165,1.5627037576038943229956737330246
166,1.5639206793575225978476471460831
167,1.5651302884703742890257638818428
168,1.5663326723342347761086323297607
169,1.5675279167834475289938017511687
170,1.5687161061317091833520360578595
171,1.5698973232077844464019891800612
172,1.5710716493901786996352231229241
173,1.5722391646408037007940530415315
174,1.5733999475376722285880987009643
175,1.5745540753066556550543961806348
176,1.5757016238523341518856346492398
177,1.5768426677879727912359362586732
178,1.5779772804646526953720992313368
179,1.5791055339995836800880501419520
180,1.5802274993036293382531822440375
181,1.5813432461080672120525369329940
182,1.5824528429906117492760527945415
183,1.5835563574007230929025590796173
184,1.5846538556842259454862679062900
185,1.5857454031072603164409828163631
186,1.5868310638795851208125724237903
187,1.5879109011772584300091139462983
188,1.5889849771647098107742935971954
189,1.5900533530162284834631491550874
190,1.5911160889368829506661972631753
191,1.5921732441828913187014381678541
192,1.5932248770814586941446987756869
193,1.5942710450500999592127331302545
194,1.5953118046154612667478926844737
195,1.5963472114316581871284509635385
196,1.5973773202981441989696421333832
197,1.5984021851771238989008321984831
198,1.5994218592105250923621085501361
199,1.6004363947365425992383597898039
200,1.6014458433057677144937638863677
201,1.6024502556969143001880068923988
202,1.6034496819321548849880169059013
203,1.6044441712920774258593412124947
204,1.6054337723302743468013070489144
205,1.6064185328875738199402539344244
206,1.6073985001059263076804020666458
207,1.6083737204419522365401308004892
208,1.6093442396801650240809218681829
209,1.6103101029458752017590899588224
210,1.6112713547177871293018760778668
211,1.6122280388402956595668493860257
212,1.6131801985354929810094299131950
213,1.6141278764148900156491195505720
214,1.6150711144908673482205258960406
215,1.6160099541878548927367528870570
216,1.6169444363532542509182658077996
217,1.6178746012681077215254578880926
218,1.6188004886575229330405494682689
219,1.6197221377008563726306719064362
220,1.6206395870416683195154559362113
221,1.6215528747974470850244837960784
222,1.6224620385691197567058760199036
223,1.6233671154503430073123224346608
224,1.6242681420365890279583711945722
225,1.6251651544340291419867423414634
226,1.6260581882682186374796906140306
227,1.6269472786925914612572081247372
228,1.6278324603967665845565128156832
229,1.6287137676146731925313654451941
230,1.6295912341324993838027186120892
231,1.6304648932964661693184664329321
232,1.6313347780204371794300737936126
233,1.6322009207933590646775998154853
234,1.6330633536865487363359505277578
235,1.6339221083608206178090528059087
236,1.6347772160734636056270712580715
237,1.6356287076850713601598169828982
238,1.6364766136662276570438940000795
239,1.6373209641040522348888044368399
240,1.6381617887086092926650450463861
241,1.6389991168191829181068940844066
242,1.6398329774104223030647664241379
243,1.6406633990983607765647064451453
244,1.6414904101463103437941482989793
245,1.6423140384706361041088817627999
246,1.6431343116464130666118585322127
247,1.6439512569129667450721517523373
248,1.6447649011793051127214107806666
249,1.6455752710294368854259348725809
250,1.6463823927275865173380919878397
251,1.6471862922233038084362918208068
252,1.6479869951564709218514933367479
253,1.6487845268622118825807937304660
254,1.6495789123757042138434514493250
255,1.6503701764368965905056695155772
256,1.6511583434951325943397155416113
257,1.6519434377136869618586394614431
258,1.6527254829742107687838339796894
259,1.6535045028810923539933624234199
260,1.6542805207657343686536056031970
261,1.6550535596907472635893487129255
262,1.6558236424540639396220717498788
263,1.6565907915929744107615764520442
264,1.6573550293880859304064001786736
265,1.6581163778672071050839976456455
266,1.6588748588091581627654400516338
267,1.6596304937475105882898259425445
268,1.6603833039742561589002207813081
269,1.6611333105434096490930714615858
270,1.6618805342745409282083930613919
271,1.6626249957562457339996963010423
272,1.6633667153495491010311092516712
273,1.6641057131912488862980631455422
274,1.6648420091971966003725700294141
275,1.6655756230655194189343255392711
276,1.6663065742797816523234049724171
277,1.6670348821120931564102174543194
278,1.6677605656261564387134306297482
279,1.6684836436802639622167307242737
280,1.6692041349302377397364943896528
281,1.6699220578323191076504178065933
282,1.6706374306460061752415830999710
283,1.6713502714368421620910938790472
284,1.6720605980791517800410776375543
285,1.6727684282587324669757036780367
286,1.6734737794754964971515449313678
287,1.6741766690460690273561652593907
288,1.6748771141063384806571418200959
289,1.6755751316139639157929617584262
290,1.6762707383508401147200920998012
291,1.6769639509255182292437424853255
292,1.6776547857755848716258294160551
293,1.6783432591700035549318893238246
294,1.6790293872114135200192395707826
295,1.6797131858383880362980441274325
296,1.6803946708276597618131631700160
297,1.6810738577963030943589635178933
298,1.6817507622038828303656960424127
299,1.6824253993545659344006749059081
300,1.6830977843991981698749500137902
301,1.6837679323373460023785113104685
302,1.6844358580193058685619579317476
303,1.6851015761480779836786434211128
304,1.6857651012813082653023485460838
305,1.6864264478331998017320458479664
306,1.6870856300763931282891811186011
307,1.6877426621438124934663813703902
308,1.6883975580304855933617831307633
309,1.6890503315953328636701930705071
310,1.6897009965629266643832968398228
311,1.6903495665252239521075697878016
312,1.6909960549432699531388090006269
313,1.6916404751488742300477034468287
314,1.6922828403462609460566420285282
315,1.6929231636136926468572899305423
316,1.6935614579050689355171842788387
317,1.6941977360514975790870935493386
318,1.6948320107628433981609465669120
319,1.6954642946292520809570001101678
320,1.6960946001226489231858969431928
321,1.6967229395982164126464185888098
322,1.6973493252958467729879977640185
323,1.6979737693415729806856090019985
324,1.6985962837489772323748404473051
325,1.6992168804205786245355634203883
326,1.6998355711491982827582772675482
327,1.7004523676193047613566626612051
328,1.7010672814083369025289859792995
329,1.7016803239880091299349970303381
330,1.7022915067255956083623221514719
331,1.7029008408851947080673057233533
332,1.7035083376289748350223849079664
333,1.7041140080184020056164794646860
334,1.7047178630154473498223025295436
335,1.7053199134837788577544719940414
336,1.7059201701899334276606948413563
337,1.7065186438044720875837273169774
338,1.7071153449031194495368472471434
339,1.7077102839678834606912273302850
340,1.7083034713881615429075705172197
341,1.7088949174618288341810314819748
342,1.7094846323963110291404636502788
343,1.7100726263096414563833961552938
344,1.7106589092315023863458283584656
345,1.7112434911042523890334974394917
346,1.7118263817839372164015415368870
347,1.7124075910412877747344980164535
348,1.7129871285627019987425489905920
349,1.7135650039512141722921672826316
350,1.7141412267274492381051652456734
351,1.7147158063305641840226809641136
352,1.7152887521191761881938306224861
353,1.7158600733722768075609455478507
354,1.7164297792901336241126548541424
355,1.7169978789951797141828748266931
356,1.7175643815328891505806368471190
357,1.7181292958726417765904402812065
358,1.7186926309085764958463341985928
359,1.7192543954604288232218298701227
360,1.7198145982743616346574688056597
361,1.7203732480237808607986391098747
362,1.7209303533101426060480186849435
363,1.7214859226637462886505541648569
364,1.7220399645445188258091904289033
365,1.7225924873427881002053348981989
366,1.7231434993800445855990220997446
367,1.7236930089096940235257581208328
368,1.7242410241177979398273257031542
369,1.7247875531238066335685972296969
370,1.7253326039812803515248109972855
371,1.7258761846786015015566903962417
372,1.7264183031396768613623475998049
373,1.7269589672246297493310573199452
374,1.7274981847304864659888249725973
375,1.7280359633918476976156258887509
376,1.7285723108815563382612615493511
377,1.7291072348113535193816776800638
378,1.7296407427325260145182817577763
379,1.7301728421365468588343184848886
380,1.7307035404557059402848809281257
381,1.7312328450637334378692398005823
382,1.7317607632764132251473642120385
383,1.7322873023521909136956243623408
384,1.7328124694927715002155974095286
385,1.7333362718437102385634401918685
386,1.7338587164949973953663002819790
387,1.7343798104816326385738566362651
388,1.7348995607841929957576510026436
389,1.7354179743293950568541859317617
390,1.7359350579906486104715510623325
391,1.7364508185886020307101927580336
392,1.7369652628916830228873678162928
393,1.7374783976166322016625252048524
394,1.7379902294290280826717020922028
395,1.7385007649438063445548757547170
396,1.7390100107257730122555885030106
397,1.7395179732901111915114526282750
398,1.7400246591028813626821927609012
399,1.7405300745815137997177491580907
400,1.7410342260952974142365820083890
401,1.7415371199658610736454682368977
402,1.7420387624676481385304419927497
403,1.7425391598283870400711229978807
404,1.7430383182295557905814484066427
405,1.7435362438068378926353821976924
406,1.7440329426505757558263140840471
407,1.7445284208062187378942423123219
408,1.7450226842747633134291720656835
409,1.7455157390131882312431282389840
410,1.7460075909348871749043368677577
411,1.7464982459100931864673221996466
412,1.7469877097662984360045440757247
413,1.7474759882886704160156887224370
414,1.7479630872204609845780158095208
415,1.7484490122634125412169715055243
416,1.7489337690781577651487588110865
417,1.7494173632846157644007076210247
418,1.7498998004623817990640037615622
419,1.7503810861511148572113431727825
420,1.7508612258509180654208054724248
421,1.7513402250227158861108217107262
422,1.7518180890886273833101843263512
423,1.7522948234323333930242753941567
424,1.7527704333994412119455021683871
425,1.7532449242978431838892314958708
426,1.7537183013980727908192871585387
427,1.7541905699336557331153590955625
428,1.7546617351014560127945043503575
429,1.7551318020620209320973080909743
430,1.7556007759399178695693427065056
431,1.7560686618240703373162763264074
432,1.7565354647680904689724010248396
433,1.7570011897906032763037798496959
434,1.7574658418755737724094432407489
435,1.7579294259726247852200992927077
436,1.7583919469973533623115258711583
437,1.7588534098316439284272020798071
438,1.7593138193239771778029674126298
439,1.7597731802897353826238081691837
440,1.7602314975115051888541167894371
441,1.7606887757393750593221633507382
442,1.7611450196912309277327812680963
443,1.7616002340530497113325459789747
444,1.7620544234791853016271865617139
445,1.7625075925926563638398235219926
446,1.7629597459854269694872127811345
447,1.7634108882186872312746412273977
448,1.7638610238231271585410989315805
449,1.7643101572992115737889370484753
450,1.7647582931174482427721635350219
451,1.7652054357186567212692739129406
452,1.7656515895142307599206548075277
453,1.7660967588864000102364907919068
454,1.7665409481884874207563639222855
455,1.7669841617451659472682929856068
456,1.7674264038527098741199424801684
457,1.7678676787792454423646258721856
458,1.7683079907649971806752146881764
459,1.7687473440225324529869014159418
460,1.7691857427370038652487560296875
461,1.7696231910663873810484090139972
462,1.7700596931417193591970413569155
463,1.7704952530673311170870826875401
464,1.7709298749210791807677930695811
465,1.7713635627545751905161724333117
466,1.7717963205934125926408660431791
467,1.7722281524373893980801343031526
468,1.7726590622607320234764537653274
469,1.7730890540123126914710595635295
470,1.7735181316158679148031172331601
471,1.7739462989702123313679744883028
472,1.7743735599494521878935973918005
473,1.7747999184031938231853957046590
474,1.7752253781567546549824779145059
475,1.7756499430113655932319245638125
476,1.7760736167443773936348017829520
477,1.7764964031094612845160500861764
478,1.7769183058368085430564017603012
479,1.7773393286333279103259401996739
480,1.7777594751828412397550780739583
481,1.7781787491462759299727919089133
482,1.7785971541618577108557299657241
483,1.7790146938452991628431288733278
484,1.7794313717899867893299795964271
485,1.7798471915671681190734183569519
486,1.7802621567261334234660334450493
487,1.7806762707943988975186301191484
488,1.7810895372778859011015387482059
489,1.7815019596610994886049076058584
490,1.7819135414073040901287991432620
491,1.7823242859586984784654633187039
492,1.7827341967365886100441055640368
493,1.7831432771415583148282178334662
494,1.7835515305536389291867626056598
495,1.7839589603324760642164905778288
496,1.7843655698174967539170827043944
497,1.7847713623280726687203343045841
498,1.7851763411636833396075684229543
499,1.7855805096040768901166573472797
500,1.785983870909430406688980506009
501,1.786386428320505693348967074627
502,1.786788185058807865844581603879
503,1.787189144326738253328205331409
504,1.787589309307749451359786711907
505,1.787988683166495373646811154532
506,1.788387269048982032553687147632
507,1.788785070082716896350752953316
508,1.789182089376856463106725931732
509,1.789578330022350282054589669419
510,1.789973795092087475610445861229
511,1.790368487641038993062166320546
512,1.790762410706399496065554328139
513,1.791155567307727491630130047947
514,1.791547960447084389003402986642
515,1.791939593109172854702027365713
516,1.792330468261472676032624019777
517,1.792720588854375207846485289600
518,1.793109957821318187930033297337
519,1.793498578078917702986303278097
520,1.793886452527100162233143351663
521,1.794273584049231073866508456502
522,1.794659975512244900619044502533
523,1.795045629766772431599758024692
