Eigenstate,Potential Energy
1,0.500000000061548507639962850285126655
2,0.64623093805287158882065529593002226
3,0.73633761088510591809209765874649223
4,0.79966528027232015710663905907961393
5,0.8480465795435962533647661075420464
6,0.8870660034590147273956787539323396
7,0.9197208334592915319901744483293771
8,0.9477838559227266221277043499266685
9,0.9723835698564000290131791993749070
10,0.9942802294094035941672966671361718
11,1.0140094047231437457976440547027507
12,1.0319621911025310513312582186652745
13,1.0484327186136035489586178201777020
14,1.0636476849397064240180353114932368
15,1.0777854711956878428918478728167285
16,1.090988946798350963579487309324529
17,1.103374302927962889261762936043727
18,1.115037303534457316659857449024781
19,1.126057808441414416303816762684970
20,1.136503110979998917728866646213766
21,1.146430444070658501798343342448457
22,1.155888891381864845553220119747067
23,1.164920865266638972278932595662599
24,1.173563264162973947925694102201801
25,1.181848389389761693945063796017557
26,1.189804678954381072633361411372559
27,1.197457300515273992098550601223833
28,1.204828634740985463525394494112370
29,1.211938672512115718217533093063608
30,1.218805343763144919997068436513411
31,1.225444791615152506608149428605990
32,1.231871602372553607708673320893150
33,1.238098999647327181933545743995628
34,1.244139009123664248649480474318994
35,1.250002599136769523805666459781475
36,1.255699801206070890357292153698174
37,1.261239813859006584943827684045916
38,1.266631092451141239155051078716926
39,1.271881427190513264043185202169087
40,1.276998011178295282874913463950908
41,1.281987499961099043304106456144945
42,1.286856063835263638569706973217472
43,1.291609433936979522351534720375819
44,1.296252942984006786369327749919133
45,1.300791561397176600779454655889710
46,1.305229929416728434803579720811383
47,1.309572385735059062670842105573443
48,1.313822993089872995690259906858429
49,1.317985561197061437359900135581255
50,1.32206366734851414475513586592305
51,1.32606067495460161695689119319297
52,1.32997975027271981697389650926674
53,1.33382387753083951506085156001521
54,1.33759587262744120987321556813144
55,1.34129839556574109138318416226166
56,1.34493396176003893935272759391653
57,1.34850495233481988603742565164129
58,1.35201362352244478550165937061093
59,1.35546211525250998464798598160595
60,1.35885245901493278335986472009136
61,1.36218658506925464365043482767815
62,1.36546632906435320259556573851499
63,1.36869343812551225480737471632220
64,1.37186957645948639028152833840366
65,1.37499633052266213347797059335021
66,1.37807521379257009043981317677515
67,1.38110767117874031942868946371356
68,1.38409508310513697974576206378516
69,1.38703876929309564268042267926720
70,1.38993999227075838026384126788003
71,1.39279996063240304377365558460926
72,1.39561983206876490155518538368393
73,1.39840071618739579932142786993228
74,1.40114367714028715754051846554140
75,1.40384973607435201941645533843155
76,1.40651987341891180621311594192511
77,1.40915503102303103825351922781911
78,1.41175611415437748174582163326702
79,1.41432399337023836159511916766753
80,1.41685950627038515471542623805286
81,1.41936345914063013687976993255134
82,1.42183662849515640559237906297097
83,1.42427976252501436767730978566536
84,1.42669358245955338856169541226188
85,1.42907878384699802405795762949927
86,1.43143603775986239005984040915191
87,1.43376599193043875476748554403680
88,1.43606927182117306032068973888185
89,1.43834648163435657855813236470577
90,1.44059820526521968889097752771131
91,1.44282500720219231422863608692870
92,1.44502743337780725335515515148069
93,1.44720601197346039309923412592192
94,1.44936125418099885490260587561384
95,1.45149365492388697636267178599121
96,1.45360369354049820620862663949433
97,1.45569183443189664906106122317237
98,1.45775852767629912202984645896912
99,1.45980420961225511301659040068790
100,1.46182930339243569017130546847845
101,1.46383421950979310779902395446388
102,1.46581935629772727929058384850580
103,1.46778510040578737403915533783110
104,1.46973182725232953059403981573752
105,1.47165990145545860454563697345578
106,1.47356967724349110539257354352746
107,1.47546149884609839468610512770301
108,1.47733570086720997819288788009288
109,1.47919260864068813128292354275237
110,1.48103253856972267662450224564209
111,1.48285579845082887206950343296422
112,1.48466268778328193297908560735723
113,1.48645349806476617744563273211971
114,1.48822851307396802511063447255423
115,1.48998800914080163177566676644998
116,1.49173225540490761035543269803355
117,1.49346151406303357571518979849387
118,1.49517604060586421982927193462497
119,1.49687608404483490998133097313907
120,1.49856188712943696049194476269767
121,1.50023368655548446121507835084361
122,1.50189171316479363291208386880427
123,1.50353619213669348668020019919216
124,1.50516734317176888480371107090322
125,1.50678538066820753413313626139167
126,1.50839051389110724580002043793916
127,1.50998294713507921718887562781822
128,1.51156287988046050489795391773000
129,1.51313050694343678418229887237516
130,1.51468601862035810850558129983983
131,1.51622960082651497870903261954927
132,1.51776143522962705410560530691758
133,1.51928169937828505622244276300710
134,1.52079056682557513995752107991836
135,1.52228820724809689857270232393057
136,1.52377478656058248141567252613665
137,1.52525046702631099531974984833285
138,1.52671540736349874863990649693937
139,1.52816976284784379097799345493807
140,1.52961368541138775568177530511450
141,1.53104732373785345471261355643205
142,1.53247082335460860220985605144711
143,1.53388432672139739291037489634555
144,1.53528797331597448194532393853722
145,1.53668189971677172477663747128135
146,1.53806623968272016728552579192941
147,1.53944112423034157305897588450264
148,1.54080668170822481688700959400336
149,1.54216303786898894540962278792881
150,1.54351031593883654577464555748690
151,1.54484863668479333654507639359572
152,1.54617811847972428000861237584250
153,1.54749887736521516556682157563315
154,1.54881102711240356342846581144207
155,1.55011467928083738458265814376257
156,1.55140994327543891339717873307058
157,1.55269692640164535942713929491703
158,1.55397573391879774651747133287751
159,1.5552464690918418120141726402809
160,1.5565092332414072536042179337847
161,1.5577641257923238198849953025280
162,1.5590112443206337057449611918228
163,1.5602506845991551058348019178088
164,1.5614825406416515627050472791870
165,1.5627069047456557098080478191627
166,1.5639238675339979249336862402944
167,1.5651335179950871263791989326325
168,1.5663359435219864007477777051602
169,1.5675312299503285244472127787317
170,1.5687194615951111219859740704443
171,1.5699007212864116555085384386445
172,1.5710750904040601122096329976108
173,1.5722426489113047919395175514112
174,1.5734034753875070384964016604780
175,1.5745576470598988995206822307253
176,1.5757052398344334213260330865389
177,1.5768463283257608391867577423946
178,1.5779809858863598174602758369895
179,1.5791092846348501844726449266935
180,1.5802312954835181085490280097682
181,1.5813470881650763637577190022635
182,1.5824567312586873807360034631689
183,1.5835602922152721318549286897526
184,1.5846578373821290922420574772662
185,1.5857494320268850847688837199279
186,1.5868351403607989776051825579125
187,1.5879150255614420348216485031965
188,1.5889891497947703563382107450952
189,1.5900575742366131382895343212126
190,1.5911203590935924048659279641416
191,1.5921775636234934341617069453999
192,1.5932292461551022602141255593287
193,1.5942754641075285550602290274879
194,1.5953162740090272315734397295773
195,1.5963517315153366994170312489072
196,1.5973818914275474659932465874190
197,1.5984068077095154576868008570647
198,1.5994265335048342233597075370941
199,1.6004411211533788539300401283532
200,1.6014506222074355582107966556999
201,1.6024550874474278714054573606546
202,1.6034545668972528723878457094751
203,1.6044491098392380644655842698640
204,1.6054387648287305345059910352095
205,1.6064235797083283557539803460675
206,1.6074036016217672530567339307053
207,1.6083788770274684011389113452428
208,1.6093494517117615773507387521387
209,1.6103153708017894117359044054126
210,1.6112766787781042300364028588737
211,1.6122334194869648486099372063155
212,1.6131856361523435484017525393791
213,1.6141333713876476058779042409254
214,1.6150766672071703566233761571817
215,1.6160155650372709978500742624513
216,1.6169501057272970842854591215976
217,1.6178803295602536764978593837531
218,1.6188062762632281141220990909874
219,1.6197279850175736869363060418082
220,1.6206454944688647119308930334838
221,1.6215588427366209186748792000112
222,1.6224680674238183403594875076793
223,1.6233732056261802713650262348167
224,1.6242742939412633506643937350719
225,1.6251713684773413276212247626648
226,1.6260644648620900481390212574286
227,1.6269536182510823040230110781350
228,1.6278388633360943557712037628263
229,1.6287202343532312809533253532965
230,1.6295977650908758344310587658986
231,1.6304714888974626096991879041298
232,1.6313414386890879102771769421876
233,1.6322076469569503166657398078324
234,1.6330701457746380949431204642141
235,1.6339289668052566181119155260405
236,1.6347841413084054989734979387526
237,1.6356357001470090546687529854344
238,1.6364836737940018339048192896503
239,1.6373280923388746424591569139135
240,1.6381689854940832203875134118713
241,1.6390063826013238522944099282926
242,1.6398403126376787666260517768724
243,1.6406708042216353547694183934040
244,1.6414978856189808982025343012593
245,1.6423215847485771768180284554846
246,1.6431419291880174769971549778180
247,1.6439589461791673812301478245679
248,1.6447726626335969198480951748877
249,1.6455831051378990533927838225921
250,1.6463902999589048697564997358739
251,1.6471942730487933955306602522627
252,1.6479950500500988194902248279471
253,1.6487926563006201998443938558376
254,1.6495871168382333115396607977786
255,1.6503784564056085130719295715991
256,1.6511666994548347176049696646045
257,1.6519518701519558591678119508650
258,1.6527339923814162980206461445245
259,1.6535130897504219680700578050765
260,1.6542891855932176520690589405196
261,1.6550623029752806976907671517612
262,1.6558324646974358992397112980285
263,1.6565996932998903949205644062358
264,1.6573640110661940298550851563554
265,1.6581254400271237094134931053944
266,1.6588840019644939099322786198510
267,1.6596397184148965593889720389581
268,1.6603926106733703210747575100037
269,1.6611426997970035495035149433809
270,1.6618900066084666420237680590946
271,1.6626345516994830694113652385765
272,1.6633763554342330643300402039643
273,1.6641154379526974100967473995195
274,1.6648518191739385380933331355220
275,1.6655855187993228087277787260727
276,1.6663165563156822536223717169134
277,1.6670449509984232623681742682118
278,1.6677707219145739678189099056602
279,1.6684938879257818324200372388536
280,1.6692144676912535284697377169185
281,1.6699324796706450011674643922150
282,1.6706479421268992107504095648238
283,1.6713608731290347661984039924723
284,1.6720712905548826070763292456374
285,1.6727792120937775408108065788022
286,1.6734846552492006601804856840429
287,1.6741876373413777003498306648463
288,1.6748881755098297372590454475169
289,1.6755862867158808754726771987073
290,1.6762819877451236580541525140435
291,1.6769752952098400394462203251718
292,1.6776662255513808063055020970829
293,1.6783547950425073521071244136259
294,1.6790410197896908424782534860179
295,1.6797249157353708584472050312432
296,1.6804064986601811032155094287357
297,1.6810857841851321042221334064541
298,1.6817627877737602272976842634979
299,1.6824375247342398058135357259330
300,1.6831100102214601354758457914949
301,1.6837802592390677462514914086340
302,1.6844482866414760444058256950813
303,1.6851141071358394978309677066346
304,1.6857777352839959422451855970816
305,1.6864391855043784368407898157057
306,1.6870984720738959326533933847782
307,1.6877556091297799356803939973969
308,1.6884106106714046432520100272421
309,1.6890634905620766429968397648745
310,1.6897142625307945096260869363244
311,1.6903629401739818945182909899715
312,1.6910095369571916213176438470389
313,1.6916540662167821803754268334200
314,1.6922965411615684263919979238367
315,1.6929369748744457989863970820801
316,1.6935753803139894419212958049814
317,1.6942117703160257596753957561743
318,1.6948461575951817626969657530061
319,1.6954785547464093429906666022953
320,1.6961089742464844813875218852579
321,1.6967374284554853055251017200295
322,1.6973639296182451130644475824300
323,1.6979884898657838742780225688806
324,1.6986111212167171912474301104701
325,1.6992318355786444757501635798327
326,1.6998506447495145831643765185581
327,1.7004675604189717232489467036814
328,1.7010825941696788370985294349200
329,1.7016957574786234152390186455614
330,1.7023070617184021886363595465810
331,1.7029165181584861313060703980294
332,1.7035241379664668358586001575443
333,1.7041299322092846406320471636974
334,1.7047339118544366925331043045043
335,1.7053360877711692606187915410591
336,1.7059364707316503585720047078126
337,1.7065350714121255484207970304491
338,1.7071319003940579844586323118178
339,1.7077269681652487619806342829944
340,1.7083202851209436622859327420503
341,1.7089118615649220076362801558040
342,1.7095017077105701234342400104550
343,1.7100898336819390455269263416457
344,1.7106762495147864664612444058750
345,1.7112609651576047401463636526622
346,1.7118439904726324198417896405421
347,1.7124253352368528949561741801003
348,1.7130050091429769385090544519835
349,1.7135830218004127103120504754216
350,1.7141593827362207583441665699581
351,1.7147341013960561060606334745776
352,1.7153071871450971081415048357421
353,1.7158786492689603592002099361793
354,1.7164484969746030700731830886479
355,1.7170167393912132771245418834095
356,1.7175833855710860945050568436397
357,1.7181484444904892485652687875142
358,1.7187119250505171385884949206114
359,1.7192738360779291691500075043150
360,1.7198341863259812921926832184584
361,1.7203929844752425038625508781035
362,1.7209502391344027778834473872825
363,1.7215059588410670312642263169270
364,1.7220601520625401465194033764522
365,1.7226128271966012869595542968744
366,1.7231639925722663829138503559293
367,1.7237136564505416810926802876298
368,1.7242618270251651460207362803753
369,1.7248085124233403462927151554080
370,1.7253537207064585390328763220917
371,1.7258974598708118060854554741356
372,1.7264397378482961986310829954965
373,1.7269805625071048571672073676816
374,1.7275199416524154155598624442649
375,1.7280578830270623809655902499334
376,1.7285943943122059460768991223042
377,1.7291294831279890231422190067536
378,1.7296631570341856674132591425687
379,1.7301954235308427300755786298078
380,1.7307262900589114976772697023476
381,1.7312557640008721937534371600228
382,1.7317838526813484610781725848175
383,1.7323105633677164994765410284853
384,1.7328359032707038231696176913452
385,1.7333598795449812591880056527828
386,1.7338824992897488457888941222499
387,1.7344037695493113805031955621452
388,1.7349236973136475549051599834317
389,1.7354422895189733510883890132415
390,1.7359595530482968892590848448575
391,1.7364754947319650436971901466870
392,1.7369901213482054357759357010083
393,1.7375034396236612778501541821518
394,1.7380154562339176494334699660506
395,1.7385261778040220628729172859184
396,1.7390356109089989697274558693413
397,1.7395437620743578381023591943907
398,1.7400506377765948094304458144923
399,1.7405562444436865008467838322386
400,1.7410605884555802534838625702939
401,1.7415636761446768759796382308920
402,1.7420655137963066287974121125809
403,1.7425661076492012704860686846489
404,1.7430654638959600593638445616751
405,1.7435635886835071764835261417668
406,1.7440604881135466793183153396890
407,1.7445561682430121033138575128264
408,1.7450506350845082149311285426486
409,1.7455438946067477776929550021712
410,1.7460359527349858461641556014691
411,1.7465268153514458483359302050030
412,1.7470164882957410394729671314269
413,1.7475049773652924069562948720061
414,1.7479922883157394504577150195511
415,1.7484784268613481218982481065337
416,1.7489633986754123553333310063032
417,1.7494472093906520357673737161437
418,1.7499298645996045706609563663269
419,1.7504113698550143431814996009056
420,1.7508917306702150296695708841297
421,1.7513709525195087340627001471823
422,1.7518490408385412214564207261264
423,1.7523260010246710875244094127581
424,1.7528018384373364781217239251179
425,1.7532765583984157390388798450468
426,1.7537501661925856033697981340262
427,1.7542226670676744017596528002972
428,1.7546940662350103098692655643892
429,1.7551643688697685461022050943242
430,1.7556335801113103823824896681997
431,1.7561017050635214723200215539128
432,1.7565687487951466469892944812785
433,1.7570347163401165169346611070271
434,1.7574996126978769790737716123388
435,1.7579634428337094529261365941307
436,1.7584262116790497479202772601163
437,1.7588879241318037239359911822800
438,1.7593485850566587279408653667928
439,1.7598081992853914888456521451023
440,1.7602667716171735426235429513726
441,1.7607243068188713484007484889591
442,1.7611808096253446600328938498348
443,1.7616362847397428017541077145465
444,1.7620907368337934681763408690405
445,1.7625441705480933802298449670662
446,1.7629965904923918223400433074962
447,1.7634480012458742309806511629230
448,1.7638984073574390537963569009337
449,1.7643478133459757208107047614222
450,1.7647962237006358811992315577223
451,1.7652436428811054097785735156262
452,1.7656900753178700256433013955434
453,1.7661355254124802671298412053737
454,1.7665799975378122131850882399836
455,1.7670234960383275761730892844240
456,1.7674660252303284643005453447775
457,1.7679075894022115105762498314773
458,1.7683481928147177654432312138484
459,1.7687878397011808682704431806243
460,1.7692265342677731413457577812325
461,1.7696642806937474574164843772318
462,1.7701010831316780951860939661896
463,1.7705369457076991879244765578835
464,1.7709718725217389275156810278340
465,1.7714058676477534941333111309774
466,1.7718389351339578437220899357828
467,1.7722710790030526353294930993257
468,1.7727023032524523154778141213007
469,1.7731326118545068378735808484016
470,1.7735620087567245446204391289706
471,1.7739904978819904777162534500110
472,1.7744180831287844201534519090291
473,1.7748447683713940192766813746023
474,1.7752705574601304981808004426948
475,1.7756954542215358797429024845910
476,1.7761194624585942389692932446812
477,1.7765425859509373185796357180220
478,1.7769648284550491857872634864126
479,1.7773861937044688216758402720447
480,1.7778066854099910398241703000795
481,1.7782263072598642871671356793888
482,1.7786450629199888980515072786092
483,1.7790629560341111837042307325763
484,1.7794799902240161791443842673090
485,1.7798961690897205267469771333727
486,1.7803114962096600836404790343286
487,1.7807259751408791041717311281654
488,1.7811396094192155964319616072131
489,1.7815524025594860835141290321632
490,1.7819643580556676351858834898108
491,1.7823754793810793068778773828195
492,1.7827857699885615768620082054960
493,1.7831952333106537593815835623997
494,1.7836038727597704906025388449842
495,1.7840116917283754827750102928171
496,1.7844186935891557940032404310970
497,1.7848248816951923021916796302096
498,1.7852302593801303315505370421256
499,1.7856348299583479321925359803330
500,1.786038596725123946585212958911
501,1.786441562956801612251408090108
502,1.786843731910955159338929064252
503,1.787245106826550874716193827664
504,1.787645690924110480054445239255
505,1.788045487405869675086918806940
506,1.788444499455937579943159658347
507,1.788842730240454928515278753049
508,1.789240182907750656834738334525
509,1.789636860588495121488282234169
510,1.790032766395856005552063583732
511,1.790427903425650147488401189250
512,1.790822274756495197677279228009
513,1.791215883449959722936314790551
514,1.791608732550712440225486261705
515,1.792000825086670958709025651945
516,1.792392164069148245574376787449
517,1.792782752492997895556338692764
518,1.793172593336759994897310505997
519,1.793561689562804367203006346761
520,1.793950044117474063848429865983
521,1.794337659931225899992571300592
522,1.794724539918772318388867979308
523,1.795110686979221024309806480802
