Eigenstate,Potential Energy
1,0.500000000018265297649108353815630533
2,0.64623093777034091034390773719257229
3,0.73633761005519283999000526954963377
4,0.79966527854370024951566860940418138
5,0.8480465765492601893274793890210358
6,0.8870659988255220675102170937798544
7,0.9197208268101795966131854381033747
8,0.9477838468799314711071841829464624
9,0.9723835580409166113943066831126701
10,0.9942802144416202437338855870311807
11,1.0140093862230233726588251502264680
12,1.0319621686897142113014282318351815
13,1.0484326919074689820733763756608937
14,1.0636476535594071156172893791392175
15,1.0777854347601723170584852274238986
16,1.090988904926375299373635705222684
17,1.103374255238096701326716126120115
18,1.115037249645085687233572063693940
19,1.126057747970737037357193665984614
20,1.136503043546027264037374490106044
21,1.146430369291211584131353193847794
22,1.155888808874563919952342698477451
23,1.164920774648901468159207997641248
24,1.173563165052006802028404162689651
25,1.181848281402554225521497145299295
26,1.189804561707697499345843225361074
27,1.197457173625645660758464490857380
28,1.204828497824702851582247597516716
29,1.211938525185220248660428146393315
30,1.218805185641420622555926602051211
31,1.225444622314117550845903990368303
32,1.231871421507451728087956824797359
33,1.238098806833119010740120352217349
34,1.244138803975018569418746588648030
35,1.250002381268054455383416387532139
36,1.255699570231345009754345639158280
37,1.261239569392009995586269202182230
38,1.266630834105286589891596534897578
39,1.271881154578876723276863340362299
40,1.276997723913607471383614036866624
41,1.281987197655735928662733335293870
42,1.286855746101237393553951627578547
43,1.291609100385929349265502616909471
44,1.296252593227189708877586037739604
45,1.300791195045458224523616721922247
46,1.305229546080573677832713389624034
47,1.309571985024522856504721722809997
48,1.313822574614590957657178148323871
49,1.317985124566240514700802532876244
50,1.32206321217092323085835743254174
51,1.32606020083856213997889121818882
52,1.32997925682609630100815511516583
53,1.33382336436103011393685511277891
54,1.33759533934136821359808701594900
55,1.34129784176984140517841521246532
56,1.34493338706025453518610060678010
57,1.34850435633658822650457990406100
58,1.35201300583068921987142821893449
59,1.35546147547163011685055187877555
60,1.35885179674879481166536315231010
61,1.36218589992118167175808297227732
62,1.36546562063711552182854110392042
63,1.36869270602131759708675131657189
64,1.37186882027997015153273109269806
65,1.37499554986887756710528614454450
66,1.37807440826497847048837885736215
67,1.38110684037720107303869428130180
68,1.38409422662889778849019448334243
69,1.38703788674078251236525282545581
70,1.38993908324036567875853432542454
71,1.39279902472128350642903046532688
72,1.39561886887361960375632332931202
73,1.39839972530426409571393111336764
74,1.40114265816453658746016001861318
75,1.40384868860066817804411016300926
76,1.40651879704128818096945706397525
77,1.40915392533475880994071465162965
78,1.41175497874803528993662049159132
79,1.41432282783768203376321253582796
80,1.41685831020273739859480070102084
81,1.41936223212827019553452757516681
82,1.42183537012770967467279267834245
83,1.42427847239134197433219930034703
84,1.42669226014774173147162210110697
85,1.42907742894434827404833657974549
86,1.43143464985287995074790404562203
87,1.43376457060482268269162941016627
88,1.43606781666180544399575537494352
89,1.43834499222529187589509819380236
90,1.44059668118967402241452912710690
91,1.44282344804253272352107073865504
92,1.44502583871554090415023197964876
93,1.44720438138922374244460693836257
94,1.44935958725454677180465377069854
95,1.45149195123408181732256699713387
96,1.45360195266529884505375820240114
97,1.45569005594834746047081651484933
98,1.45775671116051891815017055340006
99,1.45980235463942603255249917299641
100,1.46182740953679203934191711758935
101,1.46383228634461015253444726430437
102,1.46581738339530998804524115575980
103,1.46778308733745911059111540764419
104,1.46972977358842069619457396712438
105,1.47165780676529522877856604471546
106,1.47356754109538338509754788620991
107,1.47545932080732918029497806618114
108,1.47733348050402320682300180524259
109,1.47919034551827720592592339363576
110,1.48103023225221879076398929631237
111,1.48285344850128927905550486827837
112,1.48466029376367815948181108294162
113,1.48645105953597218030559435619241
114,1.48822602959574829089664721996399
115,1.48998548027179921835662131276544
116,1.49172968070263212978612075035822
117,1.49345889308384911773068302216692
118,1.49517337290497721523665662122744
119,1.49687336917628193323166086645294
120,1.49855912464607247070935134396864
121,1.50023087600896848095398012041038
122,1.50188885410557936390744683821671
123,1.50353328411401486184954821121202
124,1.50516438573362805575346775739932
125,1.50678237336136229341544208930250
126,1.50838745626105838315997773256097
127,1.50997983872605780903559842186787
128,1.51155972023541513622621595184775
129,1.51312729560402070216509843766321
130,1.51468275512691630697116762788023
131,1.51622628471807121270925680162674
132,1.51775806604387078377515945903006
133,1.51927827665155831912238419198632
134,1.52078709009285935108862295183565
135,1.52228467604299957723748058465472
136,1.52377120041532390410064983747509
137,1.52524682547171077376211392671724
138,1.52671170992896233223537888394434
139,1.52816600906134889267909500562175
140,1.52960987479947070052819882193178
141,1.53104345582559545012771381073263
142,1.53246689766562192918926486749451
143,1.53388034277781151722113430945526
144,1.53528393063842208444558070368716
145,1.53667779782437464995819463864519
146,1.53806207809307528913302897580545
147,1.53943690245950657731126569067987
148,1.54080239927070389877788993941356
149,1.54215869427771842195647577625727
150,1.54350591070517038167509241545556
151,1.54484416931848858273243820965708
152,1.54617358848892642390882972270818
153,1.54749428425644339208984616993871
154,1.54880637039053592571850706259322
155,1.55010995844909588354209237060046
156,1.55140515783537448498962089862810
157,1.55269207585312276875598175883954
158,1.55397081775998038766620870903216
159,1.5552414868191764126254523202248
160,1.5565041843496084831644045107947
161,1.5577590097743588006712456411676
162,1.5590060606677064253815496512177
163,1.5602454328006907303955562374987
164,1.5614772201852806492878343416005
165,1.5627015151171983174970463062229
166,1.5639184082174476230545923348052
167,1.5651279884725948989416382815925
168,1.5663303432738444459580656664942
169,1.5675255584549539481639536036433
170,1.5687137183290295239793103710754
171,1.5698949057242406073728776231106
172,1.5710692020184925257678617618307
173,1.5722366871730921769653603305119
174,1.5733974397654426485694262310618
175,1.5745515370208007648166982180721
176,1.5756990548431272671333567566575
177,1.5768400678450628889267544638497
178,1.5779746493770594789778057501591
179,1.5791028715556926183497615384868
180,1.5802248052911866771821705388576
181,1.5813405203141749599258759573355
182,1.5824500852017226343742595658979
183,1.5835535674026354937343157893768
184,1.5846510332620787932432890584642
185,1.5857425480455279694237235411120
186,1.5868281759620722105657979207555
187,1.5879079801870946789036748248620
188,1.5889820228843448207695928895120
189,1.5900503652274264957824758292342
190,1.5911130674207175761147743137139
191,1.5921701887197402383549748963645
192,1.5932217874509983301337047148990
193,1.5942679210313001153257269200160
194,1.5953086459865797385741513056980
195,1.5963440179702353414587518210662
196,1.5973740917809975221708567048698
197,1.5983989213803425139779429110242
198,1.5994185599094642444188071906133
199,1.6004330597058181090446525507109
200,1.6014424723192503998668737263908
201,1.6024468485277243648901168726285
202,1.6034462383526562748417520791320
203,1.6044406910738721517795480530656
204,1.6054302552441967744388588437542
205,1.6064149787036849256311526431548
206,1.6073949085935079003905148793632
207,1.6083700913695011454934669606356
208,1.6093405728153872517564616966429
209,1.6103063980556800419383892364260
210,1.6112676115682812498469617734175
211,1.6122242571967771496050947586161
212,1.6131763781624453621991615679026
213,1.6141240170759762171968095127220
214,1.6150672159489236453176205482827
215,1.6160060162048848080810588194477
216,1.6169404586904224189819415657888
217,1.6178705836857337152285918545224
218,1.6187964309150750524863051444989
219,1.6197180395569453955547321303911
220,1.6206354482540412130994910069901
221,1.6215486951229806787202805661594
222,1.6224578177638143757132757378081
223,1.6233628532693160663512371972739
224,1.6242638382340685849715862725106
225,1.6251608087633474114070324284861
226,1.6260538004818054626914472582416
227,1.6269428485419677458793047096251
228,1.6278279876325376821697668002014
229,1.6287092519865222544704718939444
230,1.6295866753891806646290590548196
231,1.6304602911857982895865847988007
232,1.6313301322892963453570954637137
233,1.6321962311876722443212075842709
234,1.6330586199512867918828515192598
235,1.6339173302399913935722191059213
236,1.6347723933101049713461888926091
237,1.6356238400212442091957742367947
238,1.6364717008430088590539678171898
239,1.6373160058615275425658909828831
240,1.6381567847858662021195019469110
241,1.6389940669543034824663908859997
242,1.6398278813404758988633285235644
243,1.6406582565593968224875605283502
244,1.6414852208733509713417412454621
245,1.6423088021976687797385502506522
246,1.6431290281063831649116097996727
247,1.6439459258377700725170649784649
248,1.6447595222997803815585160582318
249,1.6455698440753581372293472360738
250,1.6463769174276554957713896925074
251,1.6471807683051422807551573217167
252,1.6479814223466129486747590429904
253,1.6487789048860960354538194401734
254,1.6495732409576657401125736621351
255,1.6503644553001595250186729679683
256,1.6511525723618018174815412864606
257,1.6519376163047402034277122565036
258,1.6527196110094905572088638276743
259,1.6534985800792979103860946044328
260,1.6542745468444134451877434328113
261,1.6550475343662879256908772947977
262,1.6558175654416862914514253785579
263,1.6565846626067222634625491013785
264,1.6573488481408184125920669779185
265,1.6581101440705902150241076977305
266,1.6588685721736562617348918950981
267,1.6596241539823778345322484467907
268,1.6603769107875278816552359601576
269,1.6611268636418936621305548967887
270,1.6618740333638087823071902507796
271,1.6626184405406239078029599455860
272,1.6633601055321101297043078901773
273,1.6640990484738024274105536319933
274,1.6648352892802804364171143459246
275,1.6655688476483903958938117739131
276,1.6662997430604065536872274905658
277,1.6670279947871395120375988514396
278,1.6677536218909832679341221932009
279,1.6684766432289124505538427443444
280,1.6691970774554218486298205815916
281,1.6699149430254161165521486867072
282,1.6706302581970471554501364609200
283,1.6713430410345023816821920330789
284,1.6720533094107410392487857716774
285,1.6727610810101853633690436670513
286,1.6734663733313626199464183225640
287,1.6741692036895030801946501045461
288,1.6748695892190903321799496451456
289,1.6755675468763685773237580399841
290,1.6762630934418076443731964156621
291,1.6769562455225235617596307977678
292,1.6776470195546575732317512608314
293,1.6783354318057175025177451342917
294,1.6790214983768765039109120515846
295,1.6797052352052312859037457886399
296,1.6803866580660273934100443204870
297,1.6810657825748414802798731888596
298,1.6817426241897298888383216312310
299,1.6824171982133403392834361402802
300,1.6830895197949884795257515981781
301,1.6837596039326997068847774931332
302,1.6844274654752183545521227928865
303,1.6850931191239814159270311730809
304,1.6857565794350603843309337432982
305,1.6864178608210726366043252274464
306,1.6870769775530616237827094112379
307,1.6877339437623430508019046556734
308,1.6883887734423245236581701338342
309,1.6890414804502947532854906455703
310,1.6896920785091826512931604211825
311,1.6903405812092899124635250176061
312,1.6909870020099945971390790490905
313,1.6916313542414271062445377306043
314,1.6922736511061203532144958368388
315,1.6929139056806334524664469880456
316,1.6935521309171503000579420191691
317,1.6941883396450505851299165236521
318,1.6948225445724585833777874684006
319,1.6954547582877668741093284821250
320,1.6960849932611349821443099591989
321,1.6967132618459668634871600999121
322,1.6973395762803633492003302777252
323,1.6979639486885530615144569215746
324,1.6985863910823007793115962965830
325,1.6992069153622950149595513311471
326,1.6998255333195130397204221057957
327,1.7004422566365661784856027113496
328,1.7010570968890225630288656800359
329,1.7016700655467123186324769483876
330,1.7022811739750116157492511502107
331,1.7028904334361070252735394221516
332,1.7034978550902412386413312089228
333,1.7041034499969405312942258274016
334,1.7047072291162221535090891837862
335,1.7053092033097859635045315692292
336,1.7059093833421863608547620546266
337,1.7065077798819873924351111423237
338,1.7071044035029020897297339781078
339,1.7076992646849121019871816898304
340,1.7082923738153737165424450552726
341,1.7088837411901059798613645813647
342,1.7094733770144634164355612245293
343,1.7100612914043929832951854568796
344,1.7106474943874752538248859299325
345,1.7112319959039516501956441556513
346,1.7118148058077351991857014171479
347,1.7123959338674083767271183306577
348,1.7129753897672048528807407582057
349,1.7135531831079786821420965285087
350,1.7141293234081584813972492584741
351,1.7147038201046886831108533633966
352,1.7152766825539575460899433056191
353,1.7158479200327112081804621545541
354,1.7164175417389551953517121351559
355,1.7169855567928437524314636267778
356,1.7175519742375552052596783708093
357,1.7181168030401565932847177623967
358,1.7186800520924568165890120101093
359,1.7192417302118440424685955331584
360,1.7198018461421163094721754534892
361,1.7203604085542970737547854246320
362,1.7209174260474421793328809691948
363,1.7214729071494328478410522657263
364,1.7220268603177597117712403544392
365,1.7225792939402961275491927850014
366,1.7231302163360596461055691791214
367,1.7236796357559645329401870436990
368,1.7242275603835621263966469092689
369,1.7247739983357736666815229145974
370,1.7253189576636113087921814541834
371,1.7258624463528901726516179820271
372,1.7264044723249303869187466860887
373,1.7269450434372490931795225735397
374,1.7274841674842467189877038341413
375,1.7280218521978782113150108043498
376,1.7285581052483206866160959724345
377,1.7290929342446292867088188660818
378,1.7296263467353844078712235832219
379,1.7301583502093321429466127147971
380,1.7306889520960146932117613249649
381,1.7312181597663936254335302463691
382,1.7317459805334630922739870413594
383,1.7322724216528576906950020486180
384,1.7327974903234499220529671800141
385,1.7333211936879408751274997989933
386,1.7338435388334447907258167604220
387,1.7343645327920632571877243741820
388,1.7348841825414529735769350221640
389,1.7354024950053877552318355384394
390,1.7359194770543119707680500711185
391,1.7364351355058857274587274400962
392,1.7369494771255254133552698963642
393,1.7374625086269370696191939315812
394,1.7379742366726411741463169474684
395,1.7384846678744916933399914960681
396,1.7389938087941890528843274210152
397,1.7395016659437866574085953150446
398,1.7400082457861909671603604119522
399,1.7405135547356536974614586677112
400,1.7410175991582604408867503376395
401,1.7415203853724117610681207170840
402,1.7420219196492975033223850225935
403,1.7425222082133671428249856425377
404,1.7430212572427940634015723551273
405,1.7435190728699312323643264288346
406,1.7440156611817643804095599967192
407,1.7445110282203598032785278250010
408,1.7450051799833042883571169797868
409,1.7454981224241400272727748516962
410,1.7459898614527970289490510540311
411,1.7464804029360172931166508606975
412,1.7469697526977743268520411867042
413,1.7474579165196890831844538318054
414,1.7479449001414387455980404676597
415,1.7484307092611626423729418190803
416,1.7489153495358617203796302428234
417,1.7493988265817944267945311094367
418,1.7498811459748661619541386672748
419,1.7503623132510165818409527699164
420,1.7508423339065997321036536783387
421,1.7513212133987609657768049624498
422,1.7517989571458099262831322801099
423,1.7522755705275874318395875815101
424,1.7527510588858298749723122582582
425,1.7532254275245275164810978754570
426,1.7536986817102802806735197723999
427,1.7541708266726485364783156858076
428,1.7546418676044988781054614810544
429,1.7551118096623488176195514961308
430,1.7555806579667032515113358322909
431,1.7560484176023902048998371240253
432,1.7565150936188930028573088423669
433,1.7569806910306742067321040469586
434,1.7574452148175024133834918465931
435,1.7579086699247697409796072016262
436,1.7583710612638079023254174171204
437,1.7588323937122010270661179011582
438,1.7592926721140942148056517981126
439,1.7597519012804985004202396996358
440,1.7602100859895933027544356308457
441,1.7606672309870235165271532519405
442,1.7611233409861948110675301251269
443,1.7615784206685667835493627663771
444,1.7620324746839385860679561129011
445,1.7624855076507363571902126148807
446,1.7629375241562934822992630791013
447,1.7633885287571308518736347919073
448,1.7638385259792303358731560606336
449,1.7642875203183093147065566426276
450,1.7647355162400884191924121366043
451,1.7651825181805599825766214810406
452,1.7656285305462500459238813284494
453,1.7660735577144796599236363267695
454,1.7665176040336218720274340330262
455,1.7669606738233580227575906287446
456,1.7674027713749286481536129802722
457,1.7678439009513836840299787134961
458,1.7682840667878283679081873848626
459,1.7687232730916673525138704423291
460,1.7691615240428466731471125707156
461,1.7695988237940914186161670845688
462,1.7700351764711423187493805182827
463,1.7704705861729898522205506841375
464,1.7709050569721040355572514624649
465,1.7713385929146638620313139409674
466,1.7717711980207835210909022694968
467,1.7722028762847346788133851241565
468,1.7726336316751698349814342143611
469,1.7730634681353392334414114719545
470,1.7734923895833088502458379910338
471,1.7739203999121737266473514110726
472,1.7743475029902709445167432354908
473,1.7747737026613875950469138101536
474,1.7751990027449712446961595318529
475,1.7756234070363318210844483644085
476,1.7760469193068474326061350243009
477,1.7764695433041644547134224318026
478,1.7768912827523965588160356648022
479,1.7773121413523215731372651857729
480,1.7777321227815765700632060375341
481,1.7781512306948497308145318955221
482,1.7785694687240725561820920656525
483,1.7789868404786078032762006903619
484,1.7794033495454359679969069965401
485,1.7798189994893417900525568153614
486,1.7802337938530953652701802136133
487,1.7806477361576347139296527175239
488,1.7810608299022444015565576688181
489,1.7814730785647334402207207884693
490,1.7818844856016103333317488801241
491,1.7822950544482573980771342147630
492,1.7827047885191029535511277703572
493,1.7831136912077913494414361515579
494,1.7835217658873519291699434121510
495,1.7839290159103651198372792327166
496,1.7843354446091288932433369017550
497,1.7847410552958212833537949628347
498,1.7851458512626629053119964048096
499,1.7855498357820769731615594662061
500,1.785953012106848946592024083718
501,1.786355383470281552557774748954
502,1.786756953086352636757351439926
503,1.787157724149867312903354180552
504,1.787557699836612253419870915716
505,1.787956883303504968828316188242
506,1.788355277688743805701198686354
507,1.788752886111956510998663444602
508,1.789149711674347002530650406326
509,1.789545757458838576214406406057
510,1.789941026530219603141109211285
511,1.790335521935284947300579411183
512,1.790729246702977003932028230999
513,1.791122203844524974008106814975
514,1.791514396353583051085087688577
515,1.791905827206367894587715099664
516,1.792296499361793599686741312195
517,1.792686415761605238330569314131
518,1.793075579330512756638081501947
519,1.793463992976322010419679926066
520,1.793851659590065795651287856161
521,1.794238582046131668953336505864
522,1.794624763202390834097680811890
523,1.795010205900324531523171406585
