Eigenstate,Potential Energy
1,0.500000000027449911417942396656264462
2,0.64623093783029325595897975397067564
3,0.73633761023129789626855029038315911
4,0.79966527891050662696650679218524803
5,0.8480465771846431326664732080653288
6,0.8870659998087192451309083272904805
7,0.9197208282210671686753683262372274
8,0.9477838487987219840203740411478249
9,0.9723835605480183384251823059063076
10,0.9942802176175656282725749120038426
11,1.0140093901484300017610735620390599
12,1.0319621734452623660700051690128732
13,1.0484326975738882124394980575129029
14,1.0636476602174680085867443783265732
15,1.0777854424906813979871872626252418
16,1.090988913810171901171546801395311
17,1.103374265356051113691297222235572
18,1.115037261078098164223639071126453
19,1.126057760799737396163344553246964
20,1.136503057851974900728846133033035
21,1.146430385155095789796134778166108
22,1.155888826377404417402267740601682
23,1.164920793871749113400036410331005
24,1.173563186075944410758977163192154
25,1.181848304308697495885617118485344
26,1.189804586577196009776656368120333
27,1.197457200539683927137594096143765
28,1.204828526864501431798883038442854
29,1.211938556432036885467536118645713
30,1.218805219176551417694555710726228
31,1.225444658218898164956561663424244
32,1.231871459863258602096549804550670
33,1.238098847721370605297242338785045
34,1.244138847477176619657548547575589
35,1.250002427465625238794796914448429
36,1.255699619205880625396351278687362
37,1.261239621225109653174966860317433
38,1.266630888878597907583638213396208
39,1.271881212374097033164741173783972
40,1.276997784812485131894703277235267
41,1.281987261740071643191309336934793
42,1.286855813452885534768186783087393
43,1.291609171086799288624103846169574
44,1.296252667359247150967248681055143
45,1.300791272690726545891978835628240
46,1.305229627321135270044473136183304
47,1.309572069942520473192943117497562
48,1.313822663292229065379177988305304
49,1.317985217085786647439563452605258
50,1.32206330861470934803719133822155
51,1.32606030128898598787991060611648
52,1.32997936136562277750460528143953
53,1.33382347307219263646609777104813
54,1.33759545230677009031645691438869
55,1.34129795907215720925161095014087
56,1.34493350878223148217958702595087
57,1.34850448256104755484784056329629
58,1.35201313664052757437814506888585
59,1.35546161094982093528390633899771
60,1.35885193697838971434398002902697
61,1.36218604498531185420365555914046
62,1.36546577061899315046108164466340
63,1.36869286100423720797773015322781
64,1.37186898034731005223019193986226
65,1.37499571510410124154848748076793
66,1.37807457875163598703252539798400
67,1.38110701619893049561307774067661
68,1.38409440786942659091550792493507
69,1.38703807348392899585808336347729
70,1.38993927557004039265296347003526
71,1.39279922272149067214718069572467
72,1.39561907262845854206123544507445
73,1.39839993489793065727971371766236
74,1.40114287368132458679569326722386
75,1.40384891012497083080785669095291
76,1.40651902465759954471404910213570
77,1.40915415912767522832707957138350
78,1.41175521880225684045837927841391
79,1.41432307423801397902299819806987
80,1.41685856303409164117496682531564
81,1.41936249147566673650554929929295
82,1.42183563607627807578336964995159
83,1.42427874502632282392578205673678
84,1.42669253955448811417472704653872
85,1.42907771520832724427666364688248
86,1.43143494305967401007680709856916
87,1.43376487084013126113810939802346
88,1.43606812401144638525964890746677
89,1.43834530677520292660763803771451
90,1.44059700302591432544296493347631
91,1.44282377725128431537851077613662
92,1.44502617538311021656030693619342
93,1.44720472560204310811101790812320
94,1.44935993909917593443608129713023
95,1.45149231079720944596386380074520
96,1.45360232003374405277470839020166
97,1.45569043120906132746421248965225
98,1.45775709440058601929126956710319
99,1.45980274594606596947238843730815
100,1.46182780899736097706763259211388
101,1.46383269404660236074909734748275
102,1.46581779942635938702175852838852
103,1.46778351178534082185358420454934
104,1.46973020654105259796151477059284
105,1.47165824831073951624285692633229
106,1.47356799132184813559803751906752
107,1.47545977980316992343522369089113
108,1.47733394835774449959287797991465
109,1.47919082231853421288225034649966
110,1.48103071808781886932664311206885
111,1.48285394346119356997584598757950
112,1.48466079793700318254062347561864
113,1.48645157301199143529805423523828
114,1.48822655246389386396223152608679
115,1.48998601262166339371220175207841
116,1.49173022262396900692085533461768
117,1.49345944466657623412165128771874
118,1.49517393423917717464458569193558
119,1.49687394035220403963641238522134
120,1.49855970575413436794521940006446
121,1.50023146713975779810523271642368
122,1.50188945534985536652487853487034
123,1.50353389556271010904920589022432
124,1.50516500747785006325906244193276
125,1.50678300549239520260637657267714
126,1.50838809887036463618725324948963
127,1.50998049190527983006826009947801
128,1.51156038407637701889140659147397
129,1.51312797019872990324513942977251
130,1.51468344056756534642149352368342
131,1.51622698109703938006141851551973
132,1.51775877345372585098956440105280
133,1.51927899518505825995571377344527
134,1.52078781984295406704142335896488
135,1.52228541710283263014773627519713
136,1.52377195287823425544956543373261
137,1.52524758943123453075880314637384
138,1.52671248547883450074752666210481
139,1.52816679629550513707711701983363
140,1.52961067381204911051081804565954
141,1.53104426671093831459730696493311
142,1.53246772051827751724585413711186
143,1.53388117769253586634415953405162
144,1.53528477771018079593328549857888
145,1.53667865714834469169465211816484
146,1.53806294976464680575346978458745
147,1.53943778657428470783676107989802
148,1.54080329592451060179086882568139
149,1.54215960356659430838911442271193
150,1.54350683272537655528299659736229
151,1.54484510416650848832661939016072
152,1.54617453626146770341933995626929
153,1.54749524505043974853501027583736
154,1.54880734430314899515415017324407
155,1.55011094557771711506564997759844
156,1.55140615827762702887458815276858
157,1.55269308970686337279256713170881
158,1.55397184512330130178462990509780
159,1.5552425277904073018788295823389
160,1.5565052390273183491487028115527
161,1.5577600782573579114602910797846
162,1.5590071430550482540556655617771
163,1.5602465291916739022428136516248
164,1.5614783306794508977576160921268
165,1.5627026398143504489861058815788
166,1.5639195472176274906062734196794
167,1.5651291418761013849395862357494
168,1.5663315111812314538963065790672
169,1.5675267409670324035757074618648
170,1.5687149155468693846076922556680
171,1.5698961177491728826669441786578
172,1.5710704289521113057882955534399
173,1.5722379291172566707845440610513
174,1.5733986968222792322513299283418
175,1.5745528092927050390625964489489
176,1.5757003424327661246800015962323
177,1.5768413708553765917842643698469
178,1.5779759679112637455951425780217
179,1.5791042057172807207963457646305
180,1.5802261551839315484347847915185
181,1.5813418860421313113506958163004
182,1.5824514668692290834944727756585
183,1.5835549651143167023744747127357
184,1.5846524471228476161422146470792
185,1.5857439781605876134084883906970
186,1.5868296224369184043798571412332
187,1.5879094431275178537831587252487
188,1.5889835023964323018621979291895
189,1.5900518614175647045043288181649
190,1.5911145803955942435412060879023
191,1.5921717185863466297419211696983
192,1.5932233343166314806672043396591
193,1.5942694850035650771976334886625
194,1.5953102271733918394830597244701
195,1.5963456164798224546357365779286
196,1.5973757077219023480305131339419
197,1.5984005548614248734958911136238
198,1.5994202110399033843376348203321
199,1.6004347285951150190111072296252
200,1.6014441590772301416037992293655
201,1.6024485532645384135074670157290
202,1.6034479611787848723919440392327
203,1.6044424321001266731630147947986
204,1.6054320145817221057666826928496
205,1.6064167564639618551523490440511
206,1.6073967048883555220924879494026
207,1.6083719063110792754849459922663
208,1.6093424065161988575431015334594
209,1.6103082506285736847021142640326
210,1.6112694831264535398409807887037
211,1.6122261478537752147773642206999
212,1.6131782880321693301580483930696
213,1.6141259462726817106335920202973
214,1.6150691645872242910013086894683
215,1.6160079843997547595420606310009
216,1.6169424465571988930019271056037
217,1.6178725913401195422548974929550
218,1.6187984584731412410901653954055
219,1.6197200871351337110535999568110
220,1.6206375159691667704646823720161
221,1.6215507830922345498921350634226
222,1.6224599261047662114470659599915
223,1.6233649820999167327180051049923
224,1.6242659876726528146391202277518
225,1.6251629789286364698272736305593
226,1.6260559914929098293215851599956
227,1.6269450605183898105648775871813
228,1.6278302206941744568191849387116
229,1.6287115062536681001513822280814
230,1.6295889509825300342181399877174
231,1.6304625882264484861053153540519
232,1.6313324508987502961273000710794
233,1.6321985714878412910751673236770
234,1.6330609820644934969640017284586
235,1.6339197142889723623634892665315
236,1.6347747994180136910642393253691
237,1.6356262683116539041905766162194
238,1.6364741514399153627542896055913
239,1.6373184788893521862124318478775
240,1.6381592803694587204287282965738
241,1.6389965852189449363692003635970
242,1.6398304224118816154639053287834
243,1.6406608205637193523891556418370
244,1.6414878079371830634871832986037
245,1.6423114124480463739146583479447
246,1.6431316616707884020680154615914
247,1.6439485828441343230510035907113
248,1.6447622028764872917187526315135
249,1.6455725483512466937934728962188
250,1.6463796455320231091521892907721
251,1.6471835203677478866930902834549
252,1.6479841984976801286748477198472
253,1.6487817052563161561267237769203
254,1.6495760656782011115809916560797
255,1.6503673045026465785515386759527
256,1.6511554461783543025200270074761
257,1.6519405148679524041683883404335
258,1.6527225344524405289108549899378
259,1.6535015285355507355704752933954
260,1.6542775204480245098988865405774
261,1.6550505332518062159912082022371
262,1.6558205897441577103221177674786
263,1.6565877124616929682846434618570
264,1.6573519236843381733837012990055
265,1.6581132454392157936113448605055
266,1.6588716995044548120350497912676
267,1.6596273074129303241302692517010
268,1.6603800904559325348554481328833
269,1.6611300696867694246673159279814
270,1.6618772659242988079000366429206
271,1.6626216997563990667434010476574
272,1.6633633915433725396629001426111
273,1.6641023614212890066547992816509
274,1.6648386293052664796324153852287
275,1.6655722148926931728012373491361
276,1.6663031376663889306539732069711
277,1.6670314168977135968773724163869
278,1.6677570716496140780969047831467
279,1.6684801207796216049058473219831
280,1.6692005829427912830266755870127
281,1.6699184765945918234099441834292
282,1.6706338199937429475209812942491
283,1.6713466312050036802427696961531
284,1.6720569281019086869120596134976
285,1.6727647283694594617318106715214
286,1.6734700495067663922866705627014
287,1.6741729088296467594350766496004
288,1.6748733234731750743359618711695
289,1.6755713103941904006559470610005
290,1.6762668863737613944668241525534
291,1.6769600680196069027553466189688
292,1.6776508717684750054339887434044
293,1.6783393138884844066092465989111
294,1.6790254104814232120042938694392
295,1.6797091774850071796625549672781
296,1.6803906306751050294745437292538
297,1.6810697856679207432347515185169
298,1.6817466579221421719615492816213
299,1.6824212627410527533179499705397
300,1.6830936152746080897180880176142
301,1.6837637305214777985367016348127
302,1.6844316233310547273337588589332
303,1.6850973084054287072026023633044
304,1.6857608003013284217501274056627
305,1.6864221134320328202150770207798
306,1.6870812620692513379234633063367
307,1.6877382603449701060339541438695
308,1.6883931222532716290009813253065
309,1.6890458616521240190207129400258
310,1.6896964922651401226052548910547
311,1.6903450276833101341876690689622
312,1.6909914813667052098896372069131
313,1.6916358666461534741998590597109
314,1.6922781967248902238366775581109
315,1.6929184846801816484370514734577
316,1.6935567434649234437137962288324
317,1.6941929859092118556853495920193
318,1.6948272247218925072230251590028
319,1.6954594724920841484770213517034
320,1.6960897416906773324393914988218
321,1.6967180446718119345778052311598
322,1.6973443936743296309709560420566
323,1.6979688008232048489844016300576
324,1.6985912781309531676264093991153
325,1.6992118374990189295642849803547
326,1.6998304907191403020278522863202
327,1.7004472494746946073552267138558
328,1.7010621253420211123754790110310
329,1.7016751297917262514864817302237
330,1.7022862741899677150938893578684
331,1.7028955697997188419873215925719
332,1.7035030277820143768776884970682
333,1.7041086591971779716329546678970
334,1.7047124750060296142181308158216
335,1.7053144860710773002536931702625
336,1.7059147031576890052263019209398
337,1.7065131369352478295797720655623
338,1.7071097979782913755202563092178
339,1.7077046967676314200244141535743
340,1.7082978436914599753733789358811
341,1.7088892490464374507717976506274
342,1.7094789230387654121833317925039
343,1.7100668757852435781540639648699
344,1.7106531173143110453128874804777
345,1.7112376575670735628650214182844
346,1.7118205063983143308559316015364
347,1.7124016735774918875459663331762
348,1.7129811687897218976024978144796
349,1.7135590016367463860156172740603
350,1.7141351816378879600611720376397
351,1.7147097182309911068965037207555
352,1.7152826207733502491373483097449
353,1.7158538985426238427764394664118
354,1.7164235607377359319034759884310
355,1.7169916164797655254932664910168
356,1.7175580748128220060344291394491
357,1.7181229447049098090269273228022
358,1.7186862350487816173391897528320
359,1.7192479546627758155546815096001
360,1.7198081122916471422170663937996
361,1.7203667166073822848342779253788
362,1.7209237762100068992325547189800
363,1.7214792996283786488652961359378
364,1.7220332953209712880625652201554
365,1.7225857716766480255804205798739
366,1.7231367370154230461126513789836
367,1.7236861995892140817676741767991
368,1.7242341675825828222337381267965
369,1.7247806491134677961705294665691
370,1.7253256522339054369971656686281
371,1.7258691849307421863793167985930
372,1.7264112551263365918899123948247
373,1.7269518706792513655532453181623
374,1.7274910393849397117470262047271
375,1.7280287689764166160274595268061
376,1.7285650671249265510878995125236
377,1.7290999414405993890576474613416
378,1.7296333994730976875469959132444
379,1.7301654487122571892365802109954
380,1.7306960965887172917706030349561
381,1.7312253504745443633862779209188
382,1.7317532176838450224439924911642
383,1.7322797054733740555163649507056
384,1.7328048210431319377317396671925
385,1.7333285715369555766229769726657
386,1.7338509640431029381286606710501
387,1.7343720055948273040780150765923
388,1.7348917031709450979518567854629
389,1.7354100636963979535986081992063
390,1.7359270940428062160043176901226
391,1.7364428010290141910492568401901
392,1.7369571914216307526201700407156
393,1.7374702719355627805556886330703
394,1.7379820492345400105128987056633
395,1.7384925299316341526183223492403
396,1.7390017205897719297614803618320
397,1.7395096277222416654291462965636
398,1.7400162577931934292049731375948
399,1.7405216172181313057155289167305
400,1.7410257123644020869705064623711
401,1.7415285495516764370060935435081
402,1.7420301350524232740385521549853
403,1.7425304750923801908566700770335
404,1.7430295758510178065332579694122
405,1.7435274434619955148901757346683
406,1.7440240840136147387412597569692
407,1.7445195035492668066230439176522
408,1.7450137080678729551967250288256
409,1.7455067035243193183882980196481
410,1.7459984958298894177351188926224
411,1.7464890908526884139464327608638
412,1.7469784944180627022570604379565
413,1.7474667123090159306236165592438
414,1.7479537502666178645993251570521
415,1.7484396139904103828389750775738
416,1.7489243091388070328582132418688
417,1.7494078413294889955233299708091
418,1.7498902161397946214984399098367
419,1.7503714391071068181526537429406
420,1.7508515157292332688385457130900
421,1.7513304514647834367170060644599
422,1.7518082517335416347211921509410
423,1.7522849219168339977901813828326
424,1.7527604673578929710876896200653
425,1.7532348933622156935560279703155
426,1.7537082051979198836357476805421
427,1.7541804080960947117710099403707
428,1.7546515072511466733780157398254
429,1.7551215078211443746541333187103
430,1.7555904149281550933225298958878
431,1.7560582336585806179563186651846
432,1.7565249690634895153848685348296
433,1.7569906261589411640683122723142
434,1.7574552099263126513659635481424
435,1.7579187253126163583609884451422
436,1.7583811772308161332193992121132
437,1.7588425705601402144407926824552
438,1.7593029101463898860523744259606
439,1.7597622008022445460377410463958
440,1.7602204473075642592003807580780
441,1.7606776544096869543017676095882
442,1.7611338268237238291056605413788
443,1.7615889692328526110108619001005
444,1.7620430862886032926282388932681
445,1.7624961826111456729464207152509
446,1.7629482627895697284202464999956
447,1.7633993313821659831352461041740
448,1.7638493929166990962340335203532
449,1.7642984518906825070931059935908
450,1.7647465127716462906754203372853
451,1.7651935799974057261362718794754
452,1.7656396579763234200137775031140
453,1.7660847510875707270593252017804
454,1.7665288636813848576388475917251
455,1.7669720000793252955604561169359
456,1.7674141645745248233089370325999
457,1.7678553614319398503770845715285
458,1.7682955948885964405709063111059
459,1.7687348691538345521960885167018
460,1.7691731884095501334494373367342
461,1.7696105568104329227211802542922
462,1.7700469784842031668396411191881
463,1.7704824575318458610098841172955
464,1.7709169980278406713328269685314
465,1.7713506040203915086201562653454
466,1.7717832795316528841827524651036
467,1.7722150285579523280882853375894
468,1.7726458550700138855089964104270
469,1.7730757630131751678357556118647
470,1.7735047563076054830790455735890
471,1.7739328388485193126421981718251
472,1.7743600145063894320584417338256
473,1.7747862871271550265725882751087
474,1.7752116605324323055395346418787
475,1.7756361385197165383732768752174
476,1.7760597248625880258292296181903
477,1.7764824233109123395940772553565
478,1.7769042375910395061496629512543
479,1.7773251714060010242703376339132
480,1.7777452284357051107130475496748
481,1.7781644123371287249493288980099
482,1.7785827267445099417027349417853
483,1.7790001752695360512630071748795
484,1.7794167615015302073068002143504
485,1.7798324890076380990736533381198
486,1.7802473613330092326649919070422
487,1.7806613820009796702197879982640
488,1.7810745545132508234255554031334
489,1.7814868823500675294357311171081
490,1.7818983689703932722088415176373
491,1.7823090178120846834386886473384
492,1.7827188322920639111491647168722
493,1.7831278158064888308456878467438
494,1.7835359717309221931449447434386
495,1.7839433034204979002579190510025
496,1.7843498142100876556264339959549
497,1.7847555074144636721072415526599
498,1.7851603863284613838322700574003
499,1.7855644542271396589359596942735
500,1.785967714365940643491281308983
501,1.786370169980844982532150205939
502,1.786771824288529873177242528576
503,1.787172680486521417816209344938
504,1.787572741753349121022634691052
505,1.787972011248695377486120986484
506,1.788370492113545680872562079901
507,1.788768187470337401457736825655
508,1.789165100423106772309530748125
509,1.789561234057632314719970747397
510,1.789956591441580755930668545063
511,1.790351175624648670037174706785
512,1.790744989638703742070498181050
513,1.791138036497924270796828665068
514,1.791530319198937586504279853898
515,1.791921840720957757877315330851
516,1.792312604025920798154222805650
517,1.792702612058618445163229221991
518,1.793091867746832300481272114060
519,1.793480374001465109518916504067
520,1.793868133716672039393868789876
521,1.794255149769988749682283180392
522,1.794641425022460532110360425500
523,1.795026962318768956204360408713
