Eigenstate,Potential Energy
1,0.500000000000059968134956424638208322
2,0.64623093765150632225316901684968663
3,0.73633760970612726511602685065152736
4,0.79966527781664062048837343954913352
5,0.8480465752898531905591100357467691
6,0.8870659968767187640938616163732224
7,0.9197208240136716395537049529238120
8,0.9477838430767511781598498573232977
9,0.9723835530717170375237407312931156
10,0.9942802081468182801873648840919162
11,1.0140093784428783667429838654165774
12,1.0319621592643737290313637641927836
13,1.0484326806769966838053426902292225
14,1.0636476403638003381935471672777101
15,1.0777854194393734465977132788700421
16,1.090988887320279244156272088509059
17,1.103374235186555828340872221078113
18,1.115037226987913058281826494705346
19,1.126057722547708474294472347013806
20,1.136503015196882588522894604271519
21,1.146430337855655263033668335553787
22,1.155888774192265274693754342404690
23,1.164920736559494558658894986087673
24,1.173563123395090064062847033983431
25,1.181848236017689918597783061795237
26,1.189804512434411007087569564512174
27,1.197457120303424675135468467506730
28,1.204828440292996464658756393739660
29,1.211938463283437969962778406686663
30,1.218805119208931336050670239497813
31,1.225444551190248422450968433864245
32,1.231871345531487072323574937131581
33,1.238098725844299123359778321846842
34,1.244138717812538531499938177053214
35,1.250002289771062913300692015361206
36,1.255699473238942934628492320360945
37,1.261239466743249425148773895284148
38,1.266630725639169355182508267476946
39,1.271881040134353162176530135123729
40,1.276997603329575130641790529060320
41,1.281987070771038255815001903952433
42,1.286855612754662419891956616582034
43,1.291608960416208364843997391167701
44,1.296252446472995930389808073533888
45,1.300791041345405456750795810008007
46,1.305229385273214969268686123406795
47,1.309571816948349149668856524060199
48,1.313822399108029734534946892386755
49,1.317984941467654437688965607198050
50,1.32206302131860877953883062358952
51,1.32606000207074824400030933802328
52,1.32997904998094296931568508295090
53,1.33382314927662706055783035259332
54,1.33759511585573348016264290793911
55,1.34129760972091998032983143565644
56,1.34493314628591697101434866516631
57,1.34850410667462925211820554723699
58,1.35201274711882635220680287762692
59,1.35546120754750226880361844821565
60,1.35885151944996089761870649015716
61,1.36218561308511921056542514733524
62,1.36546532410121923730927584280749
63,1.36869239962289801607481434364366
64,1.37186850385625219951674098218001
65,1.37499522325699916149028999789475
66,1.37807407130198911150379562907710
67,1.38110649290006043231184986228906
68,1.38409386847447429530024804039259
69,1.38703751774585193758813127654689
70,1.38993870324160971650991821203910
71,1.39279863355528835340897796585192
72,1.39561846637687453629627098109678
73,1.39839931131316004452401309270639
74,1.40114223251536471007244246933348
75,1.40384825112961842894507126876849
76,1.40651834758444787941313447463084
77,1.40915346372811120543206688425439
78,1.41175450482745812537304069004939
79,1.41432234143894610622059574038728
80,1.41685781116150511774326897914021
81,1.41936172028009413966758468200184
82,1.42183484530803114433256922631216
83,1.42427793443548954351240154536454
84,1.42669170889092979637880767572462
85,1.42907686422167559940124311776932
86,1.43143407149932821359376346019594
87,1.43376397845525501371757042706478
88,1.43606721055096496631274334774679
89,1.43834437198780024127117203731545
90,1.44059604666002994493349550185290
91,1.44282279905511051064220935217605
92,1.44502517510458898514407370680865
93,1.44720370298886319417930256340330
94,1.44935889389876984185699812333018
95,1.45149124275675044438727684606384
96,1.45360122890014317662423579062529
97,1.45568931672896436776413739208562
98,1.45775595632037050824877776493249
99,1.45980158401183815773460020243878
100,1.46182662295495280357235235030427
101,1.46383148364156841508739319966323
102,1.46581656440397386422983953135294
103,1.46778225189059446955086236049289
104,1.46972892151864965575087447946934
105,1.47165693790509464728876906428009
106,1.47356665527708335029738064870733
107,1.47545841786311149509509260389529
108,1.47733256026591987202911602911258
109,1.47918940781816889985173239703708
110,1.48102927692183334570587780837586
111,1.48285247537220015459779624735627
112,1.48465930266730291260108892935968
113,1.48645005030357093224244053861845
114,1.48822500205842219076288742725950
115,1.48998443426048890344598774379016
116,1.49172861604811618255603054545995
117,1.49345780961674251942264832182960
118,1.49517227045572979610259381701534
119,1.49687224757517681933325402325098
120,1.49855798372322452725735616519554
121,1.50022971559432275215419806676710
122,1.50188767402890950927992124093009
123,1.50353208420492158898732348004017
124,1.50516316582153754948709851384767
125,1.50678113327552464134921928484670
126,1.50838619583054599754568972085388
127,1.50997855777976384494944843032322
128,1.51155841860205190601432023667368
129,1.51312597311211808612285368764188
130,1.51468141160482016022156327389483
131,1.51622491999394176824503413380911
132,1.51775667994568105162949794122489
133,1.51927686900709248163277146951906
134,1.52078566072971115421817275550728
135,1.52228322478857071791788803286352
136,1.52376972709682241356088900411495
137,1.52524532991614939680660653540415
138,1.52671019196315690243532582804178
139,1.52816446851191670344045533912366
140,1.52960831149282887199953490991144
141,1.53104186958795929191110186484473
142,1.53246528832300329881713840699657
143,1.53387871015601717436179931393871
144,1.53528227456305204079997110990203
145,1.53667611812082051481026640789456
146,1.53806037458651861051593052329219
147,1.53943517497491717875129563569897
148,1.54080064763283821157809386247896
149,1.54215691831111781298142103566938
150,1.54350411023415947659837431670647
151,1.54484234416717358470804371368313
152,1.54617173848119342762747018763440
153,1.54749240921595669318106372534321
154,1.54880447014073632545929615792073
155,1.55010803281319898883244848537914
156,1.55140320663636900355523541171734
157,1.55269009891376879953824776937403
158,1.55396881490280770635932948999169
159,1.5552394578664827523203560934500
160,1.5565021291234578100589078841407
161,1.5577569280965795848057371039975
162,1.5590039523598899063591873753268
163,1.5602432976841891780459180570171
164,1.5614750580812056192325993227022
165,1.5626993258464189015760516487601
166,1.5639161916005886945706081656139
167,1.5651257443300353526818118400024
168,1.5663280714257154329497039608806
169,1.5675232587211371051223688941533
170,1.5687113905291551974049203105579
171,1.5698925496776860722547706915695
172,1.5710668175443801988506414551555
173,1.5722342740902878245360228469286
174,1.5733949978925535887206436765415
175,1.5745490661761740641427356488845
176,1.5756965548448479318145944329427
177,1.5768375385109520501585655331018
178,1.5779720905246725726992947811653
179,1.5791002830023175592276637868276
180,1.5802221868538420268048813128708
181,1.5813378718096080891624625707505
182,1.5824474064464078798529971830782
183,1.5835508582127723083950268903752
184,1.5846482934535898909175797814762
185,1.5857397774340574633968178637631
186,1.5868253743629837460736925036795
187,1.5879051474154695595187903751537
188,1.5889791587549801286280168734223
189,1.5900474695548332056055863644871
190,1.5911101400191186629777397358510
191,1.5921672294030687791544380690662
192,1.5932187960328955987066117457978
193,1.5942648973251136711710797935067
194,1.5953055898053615091290862085818
195,1.5963409291267396978801958733993
196,1.5973709700876793485736688405921
197,1.5983957666493552700801313023005
198,1.5994153719526580215442826650793
199,1.6004298383347376794334836914277
200,1.6014392173451332592429148349522
201,1.6024435597614987682355750599982
202,1.6034429156049392653277499661667
203,1.6044373341549675828017935705374
204,1.6054268639640933247069112890747
205,1.6064115528720541072597802262787
206,1.6073914480197020599410726479393
207,1.6083665958625514579130860635202
208,1.6093370421840017071624661315642
209,1.6103028321082414251951099542525
210,1.6112640101128451128817207404450
211,1.6122206200410697764099034988530
212,1.6131727051138617264643992577244
213,1.6141203079415779325225899571958
214,1.6150634705354369079485979262053
215,1.6160022343186983321097874833494
216,1.6169366401375853639657241147565
217,1.6178667282719536061644263787784
218,1.6187925384457156920882235113796
219,1.6197141098370247687773294780841
220,1.6206314810882293838513412740684
221,1.6215446903155976787104330818151
222,1.6224537751188280853737197048635
223,1.6233587725903400877779147392098
224,1.6242597193243601068261972268946
225,1.6251566514258050657213535564995
226,1.6260496045189671735157989368276
227,1.6269386137560085697162590463468
228,1.6278237138252676401338564733597
229,1.6287049389593841561143432989503
230,1.6295823229432479233760951732897
231,1.6304558991217727297097131106523
232,1.6313257004075060004430355003335
233,1.6321917592880691471591267286644
234,1.6330541078334447557159065752622
235,1.6339127777031037846502443730985
236,1.6347678001529824727172917208439
237,1.6356192060423125756741113749989
238,1.6364670258403066633008427050043
239,1.6373112896327039122207054823976
240,1.6381520271281785479167029215011
241,1.6389892676646152172742765706798
242,1.6398230402152541475801303822611
243,1.6406533733947101227296418093799
244,1.6414802954648669648585941975484
245,1.6423038343406518944887122655939
246,1.6431240175956922877331345641080
247,1.6439408724678562123259316527694
248,1.6447544258646843230078045594703
249,1.6455647043687080847616399008666
250,1.6463717342426647079963734100183
251,1.6471755414346066950839168463257
252,1.6479761515829087961419934785636
253,1.6487735900211774456586088892638
254,1.6495678817830623362077988488616
255,1.6503590516069740086790275119442
256,1.6511471239407075437792424241746
257,1.6519321229459787455448532674031
258,1.6527140725028692609147758106837
259,1.6534929962141874382075695335022
260,1.6542689174097453101995119779612
261,1.6550418591505520148533967290097
262,1.6558118442329283784222003529139
263,1.6565788951925415108072131550991
264,1.6573430343083648633205110402743
265,1.6581042836065622733766763179297
266,1.6588626648642981631431366250825
267,1.6596181996134771046782147729071
268,1.6603709091444127845526972293852
269,1.6611208145094306371511196582846
270,1.6618679365263998700737368309191
271,1.6626122957822041648723875594702
272,1.6633539126361450319607367020015
273,1.6640928072232852620900285176901
274,1.6648289994577296826839679565359
275,1.6655625090358470938886001166445
276,1.6662933554394316619652787726979
277,1.6670215579388112533168393882519
278,1.6677471355958944630704893824244
279,1.6684701072671678406615422200232
280,1.6691904916066354052635880924109
281,1.6699083070687083398678232481752
282,1.6706235719110423602593952120563
283,1.6713363041973259713167388966308
284,1.6720465218000167671485872114381
285,1.6727542424030325823086178619714
286,1.6734594835043935188128118561673
287,1.6741622624188199082297886568173
288,1.6748625962802826105997153885370
289,1.6755605020445102982254086464163
290,1.6762559964914544568421584424340
291,1.6769490962277099450860976638473
292,1.6776398176888939971467481020804
293,1.6783281771419875743579460111267
294,1.6790141906876341026205181198931
295,1.6796978742623976827814763416418
296,1.6803792436409883595083109175428
297,1.6810583144384443803626378078954
298,1.6817351021122807618037237340621
299,1.6824096219646009649560881813607
300,1.6830818891441734317235086371685
301,1.6837519186484733926636342584694
302,1.6844197253256920395324603751160
303,1.6850853238767102356038103141708
304,1.6857487288570403412694411170313
305,1.6864099546787375834224955302090
306,1.6870690156122802318205452420898
307,1.6877259257884157643774888884766
308,1.6883806991999804998092671685826
309,1.6890333497036887868947611960234
310,1.6896838910218920854946225067069
311,1.6903323367443115342269370996885
312,1.6909787003297415179278503647038
313,1.6916229951077256276427961683525
314,1.6922652342802068174175277528203
315,1.6929054309231510775280390510537
316,1.6935435979881459997877229254017
317,1.6941797483039717735326095207819
318,1.6948138945781499635257443020059
319,1.6954460493984672113387479451134
320,1.6960762252344738614648895325969
321,1.6967044344389614310941070404903
322,1.6973306892494150379765651577192
323,1.6979550017894443004104705670429
324,1.6985773840701916864892201075143
325,1.6991978479917200745851791336183
326,1.6998164053443777622922202714510
327,1.7004330678101437445789137757825
328,1.7010478469639504503423611078357
329,1.7016607542749889122173636919164
330,1.7022718011079928013026757242708
331,1.7028809987245027653763513329327
332,1.7034883582841121318200039644728
333,1.7040938908456943537849894035207
334,1.7046976073686103836020276733820
335,1.7052995187139002883444397686937
336,1.7058996356454551655743796066406
337,1.7064979688311722314953655129676
338,1.7070945288440941403410576972507
339,1.7076893261635285994847222960597
340,1.7082823711761543715870179618556
341,1.7088736741771093773371877313642
342,1.7094632453710633959145387047361
343,1.7100510948732750009368344108230
344,1.7106372327106327255799375849804
345,1.7112216688226822761801192373540
346,1.7118044130626372690912866522069
347,1.7123854751983770561330314595182
348,1.7129648649134284503306590161220
349,1.7135425918079348968491612469318
350,1.7141186653996106314386327488009
351,1.7146930951246819139727652714225
352,1.7152658903388150194226384227174
353,1.7158370603180302706216434169148
354,1.7164066142596035272758025171802
355,1.7169745612829554964810225714724
356,1.7175409104305270745141961517898
357,1.7181056706686439589206900806502
358,1.7186688508883697748842576451085
359,1.7192304599063434610027174956345
360,1.7197905064656098523734010752260
361,1.7203489992364352058429466220590
362,1.7209059468171141490065727088629
363,1.7214613577347626485560094646032
364,1.7220152404461020219558601288243
365,1.7225676033382322288016392567709
366,1.7231184547293933195159892761230
367,1.7236678028697179333801760700856
368,1.7242156559419716346167363235417
369,1.7247620220622857190563597549891
370,1.7253069092808782045517493532638
371,1.7258503255827658584356028651506
372,1.7263922788884662184897384205473
373,1.7269327770546895741294360360026
374,1.7274718278750252162706579997299
375,1.7280094390806126474384151055639
376,1.7285456183408092083204600235658
377,1.7290803732638459099650291348801
378,1.7296137113974746390232710082939
379,1.7301456402296085758260864570075
380,1.7306761671889525820488294336857
381,1.7312052996456264333880041885897
382,1.7317330449117780154085029265761
383,1.7322594102421911572109215342406
384,1.7327844028348830666081492470254
385,1.7333080298316949880535699761392
386,1.7338302983188767419613204683344
387,1.7343512153276608947416089535001
388,1.7348707878348304963357270347167
389,1.7353890227632810599221779623174
390,1.7359059269825739728844556612850
391,1.7364215073094816559655741765641
392,1.7369357705085280789695480403370
393,1.7374487232925221064796563400766
394,1.7379603723230822546728519564373
395,1.7384707242111557160852895766566
396,1.7389797855175313031783577549699
397,1.7394875627533459405948527927820
398,1.7399940623805847142211887488309
399,1.7404992908125730428278042864062
400,1.7410032544144652722263681934384
401,1.7415059595037257408443006958289
402,1.7420074123506030619134356661719
403,1.7425076191786004429934333741458
404,1.7430065861649399358997086699450
405,1.7435043194410180824613113505842
406,1.7440008250928590651234232761200
407,1.7444961091615624790944069064192
408,1.7449901776437432292114459698933
409,1.7454830364919664125814029888468
410,1.7459746916151797014547743765525
411,1.7464651488791374863306087212962
412,1.7469544141068203618609301085063
413,1.7474424930788510345937169734000
414,1.7479293915339030763793039277259
415,1.7484151151691068073819644360838
416,1.7488996696404487383090896514079
417,1.7493830605631674203239178437760
418,1.7498652935121428658570870258541
419,1.7503463740222838188079179401188
420,1.7508263075889078560365500642708
421,1.7513050996681182723092863573521
422,1.7517827556771770302786130785014
423,1.7522592809948716116168542703783
424,1.7527346809618793830062973187397
425,1.7532089608811258563243765204515
426,1.7536821260181404498418394532712
427,1.7541541816014072350413148767122
428,1.7546251328227106827212147795873
429,1.7550949848374803207497876851254
430,1.7555637427651271655514393947815
431,1.7560314116893794309557786304682
432,1.7564979966586146638991747112244
433,1.7569635026861836448513918144223
434,1.7574279347507371508792108084123
435,1.7578912977965434049959134484026
436,1.7583535967338041127604561558865
437,1.7588148364389672474702478464696
438,1.7592750217550355659839399080054
439,1.7597341574918715364518192165497
440,1.7601922484264997491392865361404
441,1.7606492993034039701676233418456
442,1.7611053148348224017897177992325
443,1.7615602997010407968667513445730
444,1.7620142585506780468871610759643
445,1.7624671960009735741559649152726
446,1.7629191166380675524731373575722
447,1.7633700250172811254382579704276
448,1.7638199256633898405507333993794
449,1.7642688230708981395783307049969
450,1.7647167217043070576020730250675
451,1.7651636259983826337985008607016
452,1.7656095403584178752738280905203
453,1.7660544691604940169871233979577
454,1.7664984167517374666771864971584
455,1.7669413874505760586294733935347
456,1.7673833855469899132470110207853
457,1.7678244153027615980956463576784
458,1.7682644809517219862835352985780
459,1.7687035866999943260625630481660
460,1.7691417367262361639569448225604
461,1.7695789351818769711058170740409
462,1.7700151861913546858316490492613
463,1.7704504938523497761661328586694
464,1.7708848622360149832004973170972
465,1.7713182953872047139555323450168
466,1.7717507973247012144278387565789
467,1.7721823720414368032879738405924
468,1.7726130235047171818297253847262
469,1.7730427556564382968259926439846
470,1.7734715724133042807896439814300
471,1.7738994776670407367035047681116
472,1.7743264752846076647881480388025
473,1.7747525691084073821662215073930
474,1.7751777629564949393727555396122
475,1.7756020606227799564215884846297
476,1.7760254658772323921878324473751
477,1.7764479824660825800569021376547
478,1.7768696141120202057815553030738
479,1.7772903645143911168838807583475
480,1.7777102373493923581345689833288
481,1.7781292362702639839354536233678
482,1.7785473649074812163424890253621
483,1.7789646268689423286749628669757
484,1.7793810257401550744145079068766
485,1.7797965650844231382168023038730
486,1.7802112484430271937760876941120
487,1.7806250793354074172693601353115
488,1.7810380612593420528116557405781
489,1.7814501976911252579652259006226
490,1.7818614920857420922892066259612
491,1.7822719478770427830715764244926
492,1.7826815684779148562865331902764
493,1.7830903572804531076406576387335
494,1.7834983176561285075993088714012
495,1.7839054529559542327385003595487
496,1.7843117665106520676898923969111
497,1.7847172616308148630442371111096
498,1.7851219416070689943082995073855
499,1.7855258097102343190752823486276
500,1.785928869191483762717363068504
501,1.786331123282498278444287893350
502,1.786732575195624636711955176653
503,1.787133228124027511904751037565
504,1.787533085241843709924561684610
505,1.787932149704331383942024325592
506,1.788330424648019968184398809999
507,1.788727913190858677569800102659
508,1.789124618432363212925521027595
509,1.789520543453758902454807177279
510,1.789915691318126332460526284240
511,1.790310065070542698169423077762
512,1.790703667738222774619548761970
513,1.791096502330658123112327794660
514,1.791488571839755209456842717578
515,1.791879879239972808068991315778
516,1.792270427488456902078277600404
517,1.792660219525174153997250598098
518,1.793049258273045732155613338079
519,1.793437546638078274659304948646
520,1.793825087509494847694342736712
521,1.794211883759862693220446447039
522,1.794597938245222042072114866578
523,1.794983253805212429441036502597
