Eigenstate,Potential Energy
1,0.500000000018311451400376313749345781
2,0.64623093777064217765640989863905014
3,0.73633761005607778693663588353931414
4,0.79966527854554348875122133943765493
5,0.8480465765524530475917022463238113
6,0.8870659988304627143333617089881420
7,0.9197208268172694055649395891645302
8,0.9477838468895735007714756904284505
9,0.9723835580535148976289118948829247
10,0.9942802144575794391782461044011723
11,1.0140093862427485497096200489011977
12,1.0319621687136107483880278150002646
13,1.0484326919359424952812752579219957
14,1.0636476535928634164085949691223083
15,1.0777854347990173857354984565268377
16,1.090988904971015268430714060569111
17,1.103374255288937845233601676073784
18,1.115037249702534416531099721590262
19,1.126057748035199895722900495716982
20,1.136503043617910927445482367677954
21,1.146430369370922861521228036752596
22,1.155888808962509755004230310973068
23,1.164920774745488941896791260500641
24,1.173563165157643136048448962419057
25,1.181848281517646785705927660864474
26,1.189804561832653799949858331878568
27,1.197457173760873368795354298608207
28,1.204828497970609791444981020598686
29,1.211938525342214406934212230217020
30,1.218805185809910152986358597560928
31,1.225444622494510779435117989151486
32,1.231871421700157158297035533288311
33,1.238098807038545328780523730575188
34,1.244138804193574649618956757481769
35,1.250002381500149365619679527717443
36,1.255699570477388016936493603210535
37,1.261239569652410571191261249463457
38,1.266630834380454415538745497356675
39,1.271881154869221696339766870989865
40,1.276997724219539710634669391258884
41,1.281987197977665779946803205862317
42,1.286855746439575435488321309092229
43,1.291609100741086398963728352366694
44,1.296252593599576827695223084328324
45,1.300791195435486723824130977422727
46,1.305229546488655124772150484230074
47,1.309571985451069079833926157183532
48,1.313822575060014053540545193761988
49,1.317985125030952852550703842146723
50,1.32206321265533745918451375058860
51,1.32606020134309119225208253262119
52,1.32997925735115340153775448892823
53,1.33382336490702878376175778383284
54,1.33759533990872227639067691561053
55,1.34129784235896499316127466414454
56,1.34493338767156209506122289269196
57,1.34850435697049452539489148867728
58,1.35201300648760935127446661112494
59,1.35546147615197950660418298844715
60,1.35885179745298922392545345552935
61,1.36218590064963721498806592718396
62,1.36546562139024865480084704018720
63,1.36869270679954513489608575792862
64,1.37186882108370927162121147369123
65,1.37499555069854581529945678500081
66,1.37807440912099376704814610847014
67,1.38110684125998171871823099552174
68,1.38409422753886247061088278623635
69,1.38703788767835031090073298196279
70,1.38993908420595607243195211759215
71,1.39279902571531637882257049961438
72,1.39561886989651524943313321318389
73,1.39839972635644322635254335082213
74,1.40114265924642033800152671490034
75,1.40384868971267811285137383112652
76,1.40651879818384630000058094784816
77,1.40915392650828755493410376849117
78,1.41175497995295755060987575693730
79,1.41432282907442115402514853784386
80,1.41685831147171718277087794846195
81,1.41936223342991491460584551332068
82,1.42183537146244407252879325555061
83,1.42427847375959127403723778519493
84,1.42669226154993164154555653366048
85,1.42907743038090499476130481808033
86,1.43143465132423018042944291530051
87,1.43376457211139362405430020403366
88,1.43606781820402481047345349069574
89,1.43834499380358789799620035039246
90,1.44059668280447545409006219970488
91,1.44282344969426884854806828956781
92,1.44502584040464154253045661179644
93,1.44720438311611925681881508937637
94,1.44935958901966807388257602212112
95,1.45149195303786037432879618272640
96,1.45360195450816668618971103585621
97,1.45569005783073718339296735532575
98,1.45775671308286369546472955686417
99,1.45980235660215961832672959677388
100,1.46182741154034877563227645984640
101,1.46383228838942497593173739280346
102,1.46581738548181843623696246379720
103,1.46778308946609732894121900056478
104,1.46972977575962544434079353491442
105,1.47165780897950388724753790666370
106,1.47356754335303396193790479915267
107,1.47545932310886031772861553377709
108,1.47733348284987418791471852019069
109,1.47919034790888796127162879892636
110,1.48103023468802990519768509707307
111,1.48285345098274199837523418834045
112,1.48466029629121439719478839883729
113,1.48645106211003452439271148797840
114,1.48822603221678001059656110603323
115,1.48998548294024427096963603620839
116,1.49172968341893516749806378294648
117,1.49345889584845549445699201673118
118,1.49517337571833299348687659705096
119,1.49687337203883389099457356303396
120,1.49855912755826810835894127118197
121,1.50023087897125602817645370240157
122,1.50188885711840778664951754796853
123,1.50353328717783386928820919264732
124,1.50516438884888810728745728643106
125,1.50678237652851460567863221152409
126,1.50838745948055493705689798406908
127,1.50997984199835135679932009989127
128,1.51155972356095920849880832009916
129,1.51312729898326961510089757437034
130,1.51468275856032516936306769169104
131,1.51622628820609593313825042435037
132,1.51775806958696807778335816831866
133,1.51927828025018571640975005940315
134,1.52078709374747520273363557487996
135,1.52228467975406306294196398516934
136,1.52377120418329503945900495145548
137,1.52524682929705041755518092093670
138,1.52671171381213219374916023847742
139,1.52816601300281153904858957492695
140,1.52960987879968956410656809705908
141,1.53104345988503483588102533565233
142,1.53246690178474702211705523232930
143,1.53388034695708838980302765485076
144,1.53528393487831770411420746694869
145,1.53667780212535688659865882131318
146,1.53806208245561292260915702478275
147,1.53943690688406930501890170915899
148,1.54080240375776234322546397768168
149,1.54215869882774413837311404017292
150,1.54350591531863586564650652498819
151,1.54484417399586727786485880035651
152,1.54617359323069272952122210661968
153,1.54749428906307267093467803971633
154,1.54880637526250451173131831961275
155,1.55010996338688108962012674001545
156,1.55140516283945461079978301214802
157,1.55269208092397710857235856951493
158,1.55397082289808923823746654762050
159,1.5552414920250210810723224908677
160,1.5565041896236712949075565848882
161,1.5577590151171231073897981991876
162,1.5590060660796566130024976500079
163,1.5602454382823122271143894981325
164,1.5614772257370599336206080425832
165,1.5627015207396229263641786562173
166,1.5639184139110061598966798458403
167,1.5651279942377770418675590172246
168,1.5663303491111409559256350260270
169,1.5675255643648566771934324064063
170,1.5687137243120314234000570876703
171,1.5698949117808357361033908796988
172,1.5710692081491760586295372991241
173,1.5722366933783604130302405159497
174,1.5733974460457930195422141225749
175,1.5745515433767318434513572245861
176,1.5756990612751387756845671130407
177,1.5768400743536557076365372234020
178,1.5779746559627356545975883858374
179,1.5791028782189553726982316192865
180,1.5802248120325404157391465902755
181,1.5813405271341252804625798953596
182,1.5824500921007763356202257519345
183,1.5835535743813005840812987725002
184,1.5846510403208644994864403839151
185,1.5857425551849447455403667573432
186,1.5868281831826317465321104315602
187,1.5879079874893099095495952159695
188,1.5889820302687299346722690696083
189,1.5900503726944969441985740001090
190,1.5911130749709900819519682334863
191,1.5921701963537328051829367782495
192,1.5932217951692302512349399808866
193,1.5942679288342919827865522385476
194,1.5953086538748534524161781523809
195,1.5963440259443141188111682400063
196,1.5973740998414059064839039097441
197,1.5983989295276063842778490563041
198,1.5994185681441108246045707190062
199,1.6004330680283759772270014127483
200,1.6014424807302494977497386670905
201,1.6024468570276960071949702849629
202,1.6034462469421331587751586971576
203,1.6044406997533883665442749939840
204,1.6054302640142878107889299051541
205,1.6064149875648876854711231652535
206,1.6073949175463607064194324081711
207,1.6083701004145437508938056694259
208,1.6093405819531608499283866797453
209,1.6103064072867272762797793338981
210,1.6112676208931462235795049919948
211,1.6122242666160054356468405623004
212,1.6131763876765840130839147773942
213,1.6141240266855737750407301906888
214,1.6150672256545301518334196024759
215,1.6160060260070518146401526017331
216,1.6169404685897029967249696484843
217,1.6178705936826824652246754277871
218,1.6187964410102481159414348293458
219,1.6197180497509004640696799846378
220,1.6206354585473375389776472299498
221,1.6215487055161790853257874295269
222,1.6224578282574772678799110466863
223,1.6233628638640074408423854564501
224,1.6242638489303540409917709986099
225,1.6251608195617941611653661012226
226,1.6260538113829823420174345299911
227,1.6269428595464452248914102419264
228,1.6278279987408878759971909095380
229,1.6287092631993189340285002615753
230,1.6295866867069992674484668586784
231,1.6304603026092159306974966326849
232,1.6313301438188918282277336639065
233,1.6321962428240260718519712695062
234,1.6330586316949811774561393014582
235,1.6339173420916102721584932465759
236,1.6347724052702340106666545548637
237,1.6356238520904708209421548077888
238,1.6364717130219222101658618911433
239,1.6373160181507185665660798330298
240,1.6381567971859276105077388910731
241,1.6389940794658297761721254362340
242,1.6398278939640633797577829527503
243,1.6406582692956436049556787381590
244,1.6414852337228569939144445709462
245,1.6423088151610358167857858557161
246,1.6431290411842148383967132237596
247,1.6439459390306718638128295471559
248,1.6447595356083596433255277926036
249,1.6455698575002241053570586683761
250,1.6463769309694193013824086883313
251,1.6471807819644169622732625607298
252,1.6479814361240134639571431299184
253,1.6487789187822392739880613861046
254,1.6495732549731705352788279835017
255,1.6503644694356466664176377930535
256,1.6511525866178940633286834803936
257,1.6519376306820622930142545758874
258,1.6527196255086692234301240364216
259,1.6534985947009618923376287470406
260,1.6542745615891935008298765067737
261,1.6550475492348168445821469620080
262,1.6558175804345989075514724183046
263,1.6565846777246554680049797238766
264,1.6573488633844111670279037171206
265,1.6581101594404835640362922529974
266,1.6588685876704933463244987271417
267,1.6596241696068039051768461428525
268,1.6603769265401903115401101917667
269,1.6611268795234419604532348048082
270,1.6618740493748946076559129591098
271,1.6626184566819010816096957177441
272,1.6633601218042346497728300730571
273,1.6640990648774324815202218060353
274,1.6648353058160764160029334856966
275,1.6655688643170149098033881528973
276,1.6662997598625244420152167425362
277,1.6670280117234178600381971720417
278,1.6677536389620914200123551042394
279,1.6684766604355220243360982899185
280,1.6691970947982067491143827784591
281,1.6699149605050525503403069124269
282,1.6706302758142136450585019639828
283,1.6713430587898797799368534276274
284,1.6720533273050125437620148067864
285,1.6727610990440365310990800303460
286,1.6734663915054813818411152137600
287,1.6741692220045797559195442599901
288,1.6748696076758176449314877792204
289,1.6755675654754416687283020745275
290,1.6762631121839240894725050969165
291,1.6769562644083833840835173117650
292,1.6776470385849632599585633167300
293,1.6783354509811740197233856277432
294,1.6790215176981913119071345618896
295,1.6797052546731143546663228505657
296,1.6803866776811912180976642455103
297,1.6810658023380010968443061903725
298,1.6817426441016028897268267778454
299,1.6824172182746468892338277968889
300,1.6830895400064513314551342187924
301,1.6837596242950442178725083855002
302,1.6844274859891725019178432964321
303,1.6850931397902758134044929507640
304,1.6857566002544282983383876110362
305,1.6864178817942500026121925624611
306,1.6870769986807870627793773150712
307,1.6877339650453578858583694185139
308,1.6883887948813727965923842958070
309,1.6890415020461232414270598526862
310,1.6896921002625408843493656301558
311,1.6903406031209301894874215736600
312,1.6909870240806720036003545807871
313,1.6916313764718995312041077050929
314,1.6922736734971485066036439608472
315,1.6929139282329808824712025063630
316,1.6935521536315834106097796361290
317,1.6941883625223386535033375042090
318,1.6948225676133737778958822484882
319,1.6954547814930842719580411969914
320,1.6960850166316325872962972749719
321,1.6967132853824256247362214488550
322,1.6973395999835671783071211419022
323,1.6979639725592888514644648686838
324,1.6985864151213584226863622872336
325,1.6992069395704674224219161009629
326,1.6998255576975961586147356437326
327,1.7004422811853590115538820974536
328,1.7010571216093271872437901203818
329,1.7016700904393339041480944242298
330,1.7022811990407584449705730785109
331,1.7028904586757905120455929788965
332,1.7034978805046759475590262659540
333,1.7041034755869441971338600985919
334,1.7047072548826157007822658205986
335,1.7053092292533935261358776289616
336,1.7059094094638353019841144182851
337,1.7065078061825083243452766473758
338,1.7071044299831288939009434628247
339,1.7076992913456819492791869785868
340,1.7082924006575270875051315400740
341,1.7088837682144866851752687480800
342,1.7094734042219186174830557839549
343,1.7100613187957732128634330642543
344,1.7106475219636344369417669881511
345,1.7112320236657471250997233628467
346,1.7118148337560277384310753376788
347,1.7123959620030622084245949094762
348,1.7129754180910876820761938071310
349,1.7135532116209617123332698364579
350,1.7141293521111164361900900225715
351,1.7147038489984998280164396807047
352,1.7152767116395037104632922835317
353,1.7158479493108778073022955037701
354,1.7164175712106312526543269970060
355,1.7169855864589219218700066554914
356,1.7175520040989317938298214233784
357,1.7181168330977315836881940477406
358,1.7186800823471338900479452627330
359,1.7192417606645306016901141563927
360,1.7198018767937235017643302224951
361,1.7203604394057398142950886841269
362,1.7209174570996391745908447888329
363,1.7214729384033066191558288630941
364,1.7220268917742366190856962194108
365,1.7225793256003063933017509002012
366,1.7231302482005373792811208051927
367,1.7236796678258477532812964767750
368,1.7242275926597927887765186089656
369,1.7247740308192976856399449685240
370,1.7253189903553785832359171035273
371,1.7258624792538546107204362512278
372,1.7264045054360499310187712493211
373,1.7269450767594857451849222170166
374,1.7274842010185665656123931767392
375,1.7280218859452514496556356996322
376,1.7285581392097216498678411171041
377,1.7290929684210364700554996549657
378,1.7296263811277804945508435688327
379,1.7301583848187040304943008161211
380,1.7306889869233535198811484916576
381,1.7312181948126947967983679130276
382,1.7317460157997263080113243171159
383,1.7322724571400869715516266180363
384,1.7327975260326536369964406324675
385,1.7333212296201317686834488902101
386,1.7338435749896400105032436670477
387,1.7343645691732843815934452646117
388,1.7348842191487260397212099607752
389,1.7354025318397432870266767494148
390,1.7359195141167850072195231919855
391,1.7364351727975158511554686059602
392,1.7369495146473567791543866105467
393,1.7374625463800184335313785799520
394,1.7379742746580259224219992854115
395,1.7384847060932378717580915256072
396,1.7389938472473593962453300003600
397,1.7395017046324486192337208186561
398,1.7400082847114167495987365263090
399,1.7405135938985202814067169617829
400,1.7410176385598496163052192783612
401,1.7415204250138101575402227320657
402,1.7420219595315966207989819479559
403,1.7425222483376633826008124615236
404,1.7430212976101887593073405540334
405,1.7435191134815306821793919481195
406,1.7440157020386798774972889989744
407,1.7445110693237076684461192244024
408,1.7450052213342059019416526857286
409,1.7454981640237218614558534034542
410,1.7459899033021906803015331077200
411,1.7464804450363595153758184995401
412,1.7469697950502070639331100748210
413,1.7474579591253595024283936776479
414,1.7479449430014992712577948069234
415,1.7484307523767709893401191995962
416,1.7489153929081809281538387776150
417,1.7493988702119928936972169554297
418,1.7498811898641176795895108275529
419,1.7503623574005003698055784860281
420,1.7508423783175004729473999076196
421,1.7513212580722688402169624653092
422,1.7517990020831206486742041854798
423,1.7522756157299022859007647684606
424,1.7527511043543557497751234469820
425,1.7532254732604769426992852188044
426,1.7536987277148714670975625603274
427,1.7541708729471054067969961128071
428,1.7546419141500511079566147605902
429,1.7551118564802318719126707751687
430,1.7555807050581584220242355154252
431,1.7560484649686646481516497157789
432,1.7565151412612397782607261940562
433,1.7569807389503523150269140121313
434,1.7574452630157768353539782349116
435,1.7579087184029114764585776160600
436,1.7583711100230940094871326402425
437,1.7588324427539146620107372147418
438,1.7592927214395246714380950761670
439,1.7597519508909412506255704157544
440,1.7602101358863500368728397345960
441,1.7606672811714021841310395985922
442,1.7611233914595096620434429828869
443,1.7615784714321384094875834915967
444,1.7620325257390939619622070715474
445,1.7624855589988088834506673809576
446,1.7629375757986230270814629286961
447,1.7633885806950637937262413115343
448,1.7638385782141196067071323956072
449,1.7642875728515144430892317043754
450,1.7647355690729755739688766233915
451,1.7651825713145020168215867701792
452,1.7656285839826265412270483868837
453,1.7660736114546769710115493283739
454,1.7665176580790331717248204694109
455,1.7669607281753833472914619817499
456,1.7674028260349749428029811870683
457,1.7678439559208648491245839985818
458,1.7682841220681653051793067976081
459,1.7687233286842880118003657995969
460,1.7691615799491860994601371774496
461,1.7695988800155917995657276638461
462,1.7700352330092530323360425424365
463,1.7704706430291675149955627173229
464,1.7709051141478125511548285406970
465,1.7713386504113744700760576523156
466,1.7717712558399748464842140688949
467,1.7722029344278927814019630182971
468,1.7726336901437882596117669524827
469,1.7730635269309190604037443908209
470,1.7734924487073587461109597370271
471,1.7739204593662099955002616442650
472,1.7743475627758175795904849283484
473,1.7747737627799763307606447955762
474,1.7751990631981416091010433313112
475,1.7756234678256311887211056302264
476,1.7760469804338310777776923246640
477,1.7764696047703956051779010875958
478,1.7768913445594464499020870688284
479,1.7773122035017695022872197106961
480,1.7777321852750099518072491634384
481,1.7781512935338641521804620436694
482,1.7785695319102718325443150863748
483,1.7789869040136040346485025492768
484,1.7794034134308495957729065839243
485,1.7798190637268016541981419629419
486,1.7802338584442387619722913295745
487,1.7806478011041074537057118632341
488,1.7810608952057008678287495275374
489,1.7814731442268366483598268149530
490,1.7818845516240319901747023334682
491,1.7822951208326779619231260792909
492,1.7827048552672116946405762214621
493,1.7831137583212864109223918169425
494,1.7835218333679403885569784392892
495,1.7839290837597630509670617952449
496,1.7843355128290614287321062099287
497,1.7847411238880226775611376362391
498,1.7851459202288765978163658824637
499,1.7855499051240556527516637075231
500,1.785953081826354615779919567975
501,1.786355453569085592617965798114
502,1.786757023566235873297620892817
503,1.787157795012620081971918509798
504,1.787557771084034468154386783003
505,1.787956954937406186651873079725
506,1.788355349710943296070733156534
507,1.788752958524283323711149582362
508,1.789149784478640036592174820587
509,1.789545830656946649278251642126
510,1.789941100124001521519773980490
511,1.790335595926609576557893121819
512,1.790729321093723340060529067640
513,1.791122278636582215197841721752
514,1.791514471548850670089613141374
515,1.791905902806755711692702506168
516,1.792296575369221856287902029002
517,1.792686492178004671126108571014
518,1.793075656157824672442567817876
519,1.793464070216498361604667145980
520,1.793851737245069256219604707061
521,1.794238660117935711252732022258
522,1.794624841692979806180755215353
523,1.795010284811693735159640129301
