Eigenstate,Potential Energy
1,0.500000000083960415503787494521207173
2,0.64623093819916556228673602767788541
3,0.73633761131483593816527274526683062
4,0.79966528116740807330844326913849293
5,0.8480465810940923359421043008665933
6,0.8870660058583084395509996707036462
7,0.9197208369023487815852888083215407
8,0.9477838606053563403657886530169513
9,0.9723835759749147070881477712499050
10,0.9942802371604484452150472651086350
11,1.0140094143036052498287046588692153
12,1.0319622027094859544007786806818658
13,1.0484327324442898876573349211356966
14,1.0636477011915072274717271585541367
15,1.0777854900661224847885199193156702
16,1.090988968485071321522670376907776
17,1.103374327628752633212817194738073
18,1.115037331447233297837351498850198
19,1.126057839764229505031450680952359
20,1.136503145911045865478392552453090
21,1.146430482808274543322345013026109
22,1.155888934124536846694498946412693
23,1.164920912213008987679518133331092
24,1.173563315511845092060321353867655
25,1.181848445340104255649656180512433
26,1.189804739705338821885951787032572
27,1.197457366266170640946336545318025
28,1.204828705691331252479895324873102
29,1.211938748861614106303419828601205
30,1.218805425711699361702563381581076
31,1.225444879362873302764149237026533
32,1.231871696119764820176984697630425
33,1.238099099594573604161376831121928
34,1.244139115471718425824265179090556
35,1.250002712086638817648034256039027
36,1.255699920959004584612267121857128
37,1.261239940616503028438471218474179
38,1.266631226414955023934410799946209
39,1.271881568562662436612794242975791
40,1.276998160161068586995214751184047
41,1.281987656757063193121287018066201
42,1.286856228647270621144875089739899
43,1.291609606968173928878519556277188
44,1.296253124437833171560356825321522
45,1.300791751477386870055280296740040
46,1.305230128327389259056267493839460
47,1.309572593680559320478183992971447
48,1.313823210274931242954414013969471
49,1.317985787826733404422458902455787
50,1.32206390362820026110876275138737
51,1.32606092109005456373209312225118
52,1.32998000647005210742981913310350
53,1.33382414399653110335262561072194
54,1.33759614956834712840649665065024
55,1.34129868318909911709981291157058
56,1.34493426027347728932081470307620
57,1.34850526194636494274513802082235
58,1.35201394444052885227717250677687
59,1.35546244768597907164868043188333
60,1.35885280317305442459252045374828
61,1.36218694116172574550103912175714
62,1.36546669730130792436268751551312
63,1.36869381871752992174711403032946
64,1.37186996961759943968491955918661
65,1.37499673645836409431382663867697
66,1.37807563271782359710702806372028
67,1.38110810330598516017251456828809
68,1.38409552864729818030242759952055
69,1.38703922846359158572381451629277
70,1.38994046528350896123672821970430
71,1.39280044770183786369458825205560
72,1.39562033340983149740023742699299
73,1.39840123201556791258790197039994
74,1.40114420767157304160736957267737
75,1.40385028152530278632368377704511
76,1.40652043400662981348956859748901
77,1.40915560696517831642979966684840
78,1.41175670566918420319599751513333
79,1.41432460067651135135789363328052
80,1.41686012958751644395228227743153
81,1.41936409868860555963446871174526
82,1.42183728449456423952301426036471
83,1.42428043519705401943883747832244
84,1.42669427202604412452366901050296
85,1.42907949053038774704899642172743
86,1.43143676178323646283708219313473
87,1.43376673351752887091616189369394
88,1.43607003119636616329577959694058
89,1.43834725902270382958693510887314
90,1.44059900089244548446232678904437
91,1.44282582129470335390162840446177
92,1.44502826616270165862706236082735
93,1.44720686367853687807965810999300
94,1.44936212503476594954790547850302
95,1.45149454515557230303204229015444
96,1.45360460338005781031055400116110
97,1.45569276411002438456626557538193
98,1.45775947742443609263434987656387
99,1.45980517966259916974618128305846
100,1.46183029397795098622630489569052
101,1.46383523086421971144609950410798
102,1.46582038865559084561629324979216
103,1.46778615400240887638776137005594
104,1.46973290232383505252048352230703
105,1.47166099823878919312254378734071
106,1.47357079597641268671863158600285
107,1.47546263976721175245162968115323
108,1.47733686421596079616685739072183
109,1.47919379465737710059460933716402
110,1.48103374749551566872146323297992
111,1.48285703052776717824281508539001
112,1.48466394325429257135570660850865
113,1.48645477717367226835696821623462
114,1.48822981606549923575579295568560
115,1.48998933626060469110729210103280
116,1.49173360689955689512576159188574
117,1.49346289018004176862952568914176
118,1.49517744159369304076427066205611
119,1.49687751015290592123520323275668
120,1.49856333860814244704428330265862
121,1.50023516365619838698403762642533
122,1.50189321613988267400735752714878
123,1.50353772123952814266083938319934
124,1.50516889865673466896064685214531
125,1.50678696279071624382730411850616
126,1.50839212290760831389820896674152
127,1.50998458330307114565060020199068
128,1.51156454345850238157824750911061
129,1.51313219819115988392703011979951
130,1.51468773779847757962759024743241
131,1.51623134819684161594571104637579
132,1.51776321105507915917040010413274
133,1.51928350392290038707538542752753
134,1.52079240035452294993241642777877
135,1.52229007002769006651144204357812
136,1.52377667885828973397287769901250
137,1.52525238911076922261442306341081
138,1.52671735950452541444390391525465
139,1.52817174531644943864480602351830
140,1.52961569847978861103290684114406
141,1.53104936767948412711263344381076
142,1.53247289844413488507563960792566
143,1.53388643323472916491424720447712
144,1.53529011153027871018663428649652
145,1.53668406991048557121102561572171
146,1.53806844213556419971612343038637
147,1.53944335922333308200938018818379
148,1.54080894952369123969103810068068
149,1.54216533879058139886899631784763
150,1.54351265025154346875140309551974
151,1.54485100467495424387210167573011
152,1.54618052043504362911794341344873
153,1.54750131357477633725227100094504
154,1.54881349786668295817598921147246
155,1.55011718487171863591927269784103
156,1.55141248399622721972688096500137
157,1.55269950254708193583977456270309
158,1.55397834578507439807477129702886
159,1.5552491169766156300356727386484
160,1.5565119174438154364939921710719
161,1.5577668466129986200595366844072
162,1.5590140020617175042414199806086
163,1.5602534795643156161983776659769
164,1.5614853731360971657742042709774
165,1.5627097750761509210363918367442
166,1.5639267760088789959074722303840
167,1.5651364649242777822104484630264
168,1.5663389292170137150441194401314
169,1.5675342547243389335804236530505
170,1.5687225257628865804036274631637
171,1.5699038251643859338546239008764
172,1.5710782343103352400427415732523
173,1.5722458331656676468597474341277
174,1.5734067003114460835153018473519
175,1.5745609129766210705319460994202
176,1.5757085470688811665585466053001
177,1.5768496772046293125458030159981
178,1.5779843767381142276869494670496
179,1.5791127177897433020769742949509
180,1.5802347712736079324974399202962
181,1.5813506069242439499208399486539
182,1.5824602933226548341293081536317
183,1.5835638979216207647314031460527
184,1.5846614870703177501223863480412
185,1.5857531260382686425232659447674
186,1.5868388790386470077268554058731
187,1.5879188092509576500621606351332
188,1.5889929788431092289024512357881
189,1.5900614489929026978174019446749
190,1.5911242799089512174573896909507
191,1.5921815308510507647327317601240
192,1.5932332601500178205003228432918
193,1.5942795252270124396169405573664
194,1.5953203826123600441519036457583
195,1.5963558879638898721293653861575
196,1.5973860960848037737099751156788
197,1.5984110609410897301450178151303
198,1.5994308356784942574930476811643
199,1.6004454726390665289657297099482
200,1.6014550233772881561139521278017
201,1.6024595386757996052852686532899
202,1.6034590685607366255175784613748
203,1.6044536623166873426030018611250
204,1.6054433685012816342391456935666
205,1.6064282349594227516337695624555
206,1.6074083088371742063166727893035
207,1.6083836365953077928408754989576
208,1.6093542640225269688346766808392
209,1.6103202362483713352921618607070
210,1.6112815977558137127595929521329
211,1.6122383923935571724345071543151
212,1.6131906633880422493616916177587
213,1.6141384533551687156760049933081
214,1.6150818043117468896381017490026
215,1.6160207576866776867529598138238
216,1.6169553543318753674868300811953
217,1.6178856345329369406834161211090
218,1.6188116380195671951901291023244
219,1.6197334039757626326922659369176
220,1.6206509710497668099434069148101
221,1.6215643773637949927466596696396
222,1.6224736605235453191156232968852
223,1.6233788576274900325116364686894
224,1.6242800052759618445217758654011
225,1.6251771395800379835873448064931
226,1.6260702961702254677927712891835
227,1.6269595102049562446294303423026
228,1.6278448163788940080062795285049
229,1.6287262489310598447212837620430
230,1.6296038416527813967036506818541
231,1.6304776278954673283634882736071
232,1.6313476405782175080377628308146
233,1.6322139121952638891054952958888
234,1.6330764748232582369082526037453
235,1.6339353601283998726470174919104
236,1.6347905993734131330966921264933
237,1.6356422234243781663386222710048
238,1.6364902627574167945970222113383
239,1.6373347474652388798352845942327
240,1.6381757072635513456062708629578
241,1.6390131714973341365828744333262
242,1.6398471691469859717978719314549
243,1.6406777288343439224477030980678
244,1.6415048788285785025761492856542
245,1.6423286470519686458328208227075
246,1.6431490610855590869586165917592
247,1.6439661481747015298679588774267
248,1.6447799352344871829711054996259
249,1.6455904488550656303398822064987
250,1.6463977153068604229285862952758
251,1.6472017605456792893702121689375
252,1.6480026102177217643557042644638
253,1.6488002896644893063120409671380
254,1.6495948239275975607491403939230
255,1.6503862377534946488192870057262
256,1.6511745555980855659742348709006
257,1.6519598016312690815826167229888
258,1.6527419997413835836880262154204
259,1.6535211735395686718816672634493
260,1.6542973463640428841194787483787
261,1.6550705412842978706690467558208
262,1.6558407811052137400479457114109
263,1.6566080883710944269725208410146
264,1.6573724853696285326102526899737
265,1.6581339941357741618048163464319
266,1.6588926364555699244504271819908
267,1.6596484338698753136939573474515
268,1.6604014076780404941137228437639
269,1.6611515789415097692254393258193
270,1.6618989684873544518935791832586
271,1.6626435969117444210420624463969
272,1.6633854845833523436679821407169
273,1.6641246516466980047140612056279
274,1.6648611180254299532639961699998
275,1.6655949034255483400861933252133
276,1.6663260273385672243297530912481
277,1.6670545090446238328409083831351
278,1.6677803676155265262023714997336
279,1.6685036219177529741250263741172
280,1.6692242906153906332244320377748
281,1.6699423921730274161749715231154
282,1.6706579448585900486829959305215
283,1.6713709667461333269026870559951
284,1.6720814757185774320095206692705
285,1.6727894894704001093759214297520
286,1.6734950255102797372812691110990
287,1.6741981011636943446386745697737
288,1.6748987335754729797092053637390
289,1.6755969397123040780660585210624
290,1.6762927363652015625384743374009
291,1.6769861401519265162826916154595
292,1.6776771675193673140957499174337
293,1.6783658347458821179621295166648
294,1.6790521579435987739672477017792
295,1.6797361530606741979437476355885
296,1.6804178358835208356408608332740
297,1.6810972220389901293712243739640
298,1.6817743269965223081240732569687
299,1.6824491660702593042423092855278
300,1.6831217544211225475104000618068
301,1.6837921070588560483419806236283
302,1.6844602388440368632501725685998
303,1.6851261644900501159905801815036
304,1.6857898985650321521678094082812
305,1.6864514554937832561025935372125
306,1.6871108495596491934512697402577
307,1.6877680949063687618327936431058
308,1.6884232055398948281959559698009
309,1.6890761953301849425040573345560
310,1.6897270780129618631992959090217
311,1.6903758671914475896741560435293
312,1.6910225763380684152110115954427
313,1.6916672187961323934732471649713
314,1.6923098077814810231640822690606
315,1.6929503563841144708451491824920
316,1.6935888775697917079112082407712
317,1.6942253841816031006871823343836
318,1.6948598889415208052636981364313
319,1.6954924044519241090068072300948
320,1.6961229431970997203851561320382
321,1.6967515175447209264387890404151
322,1.6973781397473017327198259411925
323,1.6980028219436295001491701893305
324,1.6986255761601750563448620164065
325,1.6992464143124820438234017435283
326,1.6998653482065337427324248661328
327,1.7004823895401001893087270136336
328,1.7010975499040627797042235357723
329,1.7017108407837213344946392282077
330,1.7023222735600800560027628604638
331,1.7029318595111138174872921810316
332,1.7035396098130158459052315749428
333,1.7041455355414271772801723915521
334,1.7047496476726460691848692867185
335,1.7053519570848216857662515106969
336,1.7059524745591281138732157630279
337,1.7065512107809215830474082887451
338,1.7071481763408819487580621631952
339,1.7077433817361345039261751967470
340,1.7083368373713582106278485961275
341,1.7089285535598760661166493360144
342,1.7095185405247301008888925274077
343,1.7101068083997406471632171845333
344,1.7106933672305498720829365143195
345,1.7112782269756513955833060651844
346,1.7118613975074034683438869950862
347,1.7124428886130292758203879013850
348,1.7130227099956011807311860400989
349,1.7136008712750124495849083952079
350,1.7141773819889340062734489133560
351,1.7147522515937583010209720663240
352,1.7153254894655299777682465616807
353,1.7158971049008626250891897288084
354,1.7164671071178430258600134567869
355,1.7170355052569232717167253052490
356,1.7176023083817989528639763736971
357,1.7181675254802766630699001348535
358,1.7187311654651300646560048689940
359,1.7192932371749402594592973218699
360,1.7198537493749294045262852368607
361,1.7204127107577793182813864134166
362,1.7209701299444415596531966157882
363,1.7215260154849335766803353278299
364,1.7220803758591259495134837216711
365,1.7226332194775189651330090927218
366,1.7231845546820074024143245395856
367,1.7237343897466364205438890477670
368,1.7242827328783453405276819928945
369,1.7248295922177039533705655386626
370,1.7253749758396370691583232579008
371,1.7259188917541401614343444124970
372,1.7264613479069850644571303919524
373,1.7270023521804156911810926689291
374,1.7275419123938380816007486513696
375,1.7280800363044954742062914641672
376,1.7286167316081398579752905995025
377,1.7291520059396917953510594023800
378,1.7296858668738916848787277713340
379,1.7302183219259443045941930774854
380,1.7307493785521533942548859792707
381,1.7312790441505491531984331331383
382,1.7318073260615057733835574683174
383,1.7323342315683536836873215235319
384,1.7328597678979814706091832660449
385,1.7333839422214310981157631363910
386,1.7339067616544870867919585356551
387,1.7344282332582554031859676878129
388,1.7349483640397359977270236390383
389,1.7354671609523896675264838154551
390,1.7359846308966964348209852782009
391,1.7365007807207057596990068581206
392,1.7370156172205821972180103080209
393,1.7375291471411439741807617696166
394,1.7380413771763930684784349286097
395,1.7385523139700396497402387947603
396,1.7390619641160205340566691549648
397,1.7395703341590112846372272736336
398,1.7400774305949319685331794353963
399,1.7405832598714451372596100959783
400,1.7410878283884503333694399640639
401,1.7415911424985711740428630096865
402,1.7420932085076357591053103730448
403,1.7425940326751532264628290698518
404,1.7430936212147843503476009806868
405,1.7435919802948036501841758761854
406,1.7440891160385591215262389167687
407,1.7445850345249267082619723991183
408,1.7450797417887570218246613726369
409,1.7455732438213171710862457389468
410,1.7460655465707302200821714791238
411,1.7465566559424065363148112297355
412,1.7470465777994706150313474314176
413,1.7475353179631844614083966990849
414,1.7480228822133639574325486673743
415,1.7485092762887925004587071998570
416,1.7489945058876283461780611773731
417,1.7494785766678085076542335237743
418,1.7499614942474463769233323570065
419,1.7504432642052273510061717730008
420,1.7509238920807974476822131333237
421,1.7514033833751488667196783342365
422,1.7518817435510017817712858913424
423,1.7523589780331802027696339014072
424,1.7528350922089855263457813040255
425,1.7533100914285641575175053867236
426,1.7537839810052728134842880552184
427,1.7542567662160389982594466699762
428,1.7547284523017166660278243627691
429,1.7551990444674409899419561792270
430,1.7556685478829751028867899778577
431,1.7561369676830563184203198105521
432,1.7566043089677389860744454693297
433,1.7570705768027293237090578709305
434,1.7575357762197233297777395677324
435,1.7579999122167356042399468685287
436,1.7584629897584269843007004298398
437,1.7589250137764291616816387585952
438,1.7593859891696652689664059649433
439,1.7598459208046671219572896477497
440,1.7603048135158901950310294794453
441,1.7607626721060234952996524113903
442,1.7612195013462979053187279551518
443,1.7616753059767926483193844676532
444,1.7621300907067345017820474014533
445,1.7625838602147990966416927245188
446,1.7630366191494053332868230754239
447,1.7634883721290100905286317339247
448,1.7639391237423964529473330596941
449,1.7643888785489633045236113772269
450,1.7648376410790084486215610373485
451,1.7652854158340127652472910828086
452,1.7657322072869182549954983860380
453,1.7661780198824057210465685321990
454,1.7666228580371684866951402183377
455,1.7670667261401857810575059146076
456,1.7675096285529910989938739117128
457,1.7679515696099402402487746467175
458,1.7683925536184754332708730927709
459,1.7688325848593880674951434479626
460,1.7692716675870796865625433867183
461,1.7697098060298191026519534029764
462,1.7701470043899988557210883531611
463,1.7705832668443896325035418311743
464,1.7710185975443908175706764401540
465,1.7714530006162811569436011019271
466,1.7718864801614666770557480343334
467,1.7723190402567251520490871040195
468,1.7727506849544521478993821207462
469,1.7731814182829011333062674290574
470,1.7736112442464251955378347940050
471,1.7740401668257146424072531383950
472,1.7744681899780348024979302502959
473,1.7748953176374593894926425152528
474,1.7753215537151069500231294455948
475,1.7757469020993693336980189493741
476,1.7761713666561447155177065800347
477,1.7765949512290655205954046388297
478,1.7770176596397259446290192878267
479,1.7774394956879079775188087220230
480,1.7778604631518063433035856103878
481,1.7782805657882509264716348540401
482,1.7786998073329302732334143681879
483,1.7791181915006115682025008295623
484,1.7795357219853599273387644623454
485,1.7799524024607585058247154149648
486,1.7803682365801240281817123425993
487,1.7807832279767246126533757848457
488,1.7811973802639945103576893921260
489,1.7816106970357490121273656253876
490,1.7820231818663974117141233237673
491,1.7824348383111561860639426061362
492,1.7828456699062610081529649626413
493,1.7832556801691775956199613042938
494,1.7836648725988125184245226577420
495,1.7840732506757221882116781744940
496,1.7844808178623233050208179523589
497,1.7848875776031004791500303912784
498,1.7852935333248150068429110985075
499,1.7856986884367123316864113626165
500,1.786103046330730357964529023388
501,1.786506610381704399011471302528
502,1.786909383947576254044798640347
503,1.787311370369598921272088216287
504,1.787712572972544832168729302915
505,1.788112995064910496925096222236
506,1.788512639939123335222098851068
507,1.788911510871748585995662251722
508,1.789309611123695983454756466827
509,1.789706943940424479267783935876
510,1.790103512552151114956828071586
511,1.790499320174057328265718254873
512,1.790894370006496648314097536841
513,1.791288665235202451939568636825
514,1.791682209031496516449302689997
515,1.792075004552498804055947894447
516,1.792467054941336751662994514416
517,1.792858363327355206443857484302
518,1.793248932826328860834890968328
519,1.793638766540674039691214189984
520,1.794027867559662770167369453761
521,1.794416238959636005922740387940
522,1.794803883804220361203015381163
523,1.795190805144544874385144882157
