Eigenstate,Potential Energy
1,0.500000000026595600044843053791659196
2,0.64623093782471675593560175345639621
3,0.73633761021491737471088785144354625
4,0.79966527887638786322674704445135989
5,0.8480465771255424348491148039122810
6,0.8870659997172661373918932015386550
7,0.9197208280898317133819662194586266
8,0.9477838486202428675083157779528052
9,0.9723835603148159397528435258869311
10,0.9942802173221486603457406835986952
11,1.0140093897832991266267548766020849
12,1.0319621730029122682959734755217856
13,1.0484326970468088330730282950338315
14,1.0636476595981452960283558476205126
15,1.0777854417715977674311147888977721
16,1.090988912983806510984635222544242
17,1.103374264414880022714753430383479
18,1.115037260014594409220403951495236
19,1.126057759606371014258711117847680
20,1.136503056521212913048581349393757
21,1.146430383679402157145215956919871
22,1.155888824749239975408554406972897
23,1.164920792083571492312184735812651
24,1.173563184120207943593687268257706
25,1.181848302177853117599886513220439
26,1.189804584263691149432288224423233
27,1.197457198035962394524550571282248
28,1.204828524163003299624754209205277
29,1.211938553525198367958834067530504
30,1.218805216056804746262643310177715
31,1.225444654878671461437033188328814
32,1.231871456294975749962187217655136
33,1.238098843917451119161761687392795
34,1.244138843430035513323499936439278
35,1.250002423167672892049350974214090
36,1.255699614649522649719808505601772
37,1.261239616402746756496092787013679
38,1.266630883782625758191464491188582
39,1.271881206996906122866864099173309
40,1.276997779146460638496285771029087
41,1.281987255777593292356143958367670
42,1.286855807186327461312679945655382
43,1.291609164508529897286420420226105
44,1.296252660461628976686733447967906
45,1.300791265466116113628063112289771
46,1.305229619761882954159339774069490
47,1.309572062040970356418094646137614
48,1.313822655040718797382574394496226
49,1.317985208476647303007054148162891
50,1.32206329964026528487947256756089
51,1.32606029194155470407411180072843
52,1.32997935163751476857778790297688
53,1.33382346295571125212639353424513
54,1.33759544179421139083621857822342
55,1.34129794815580982150579588572630
56,1.34493349745437645534157360827305
57,1.34850447081395821574401014096894
58,1.35201312446646938250178593476638
59,1.35546159834105133746833220017411
60,1.35885192392715799909415914841445
61,1.36218603148385900568513001131292
62,1.36546575665955170214449707025214
63,1.36869284657903109593688245182209
64,1.37186896544855446809114373134918
65,1.37499569972400248508697510000714
66,1.37807456288239131841659227023134
67,1.38110699983272798728760819945975
68,1.38409439099844497912510535174341
69,1.38703805610033753180451175434671
70,1.38993925766599869328320013966246
71,1.39279920428914857056793700868024
72,1.39561905365995593757565026648967
73,1.39839991538539736504177749827546
74,1.40114285361688018707782986837996
75,1.40384888950072451787695534355861
76,1.40651900346564997531115045849024
77,1.40915413736011036974578410894864
78,1.41175519645115381821697040897489
79,1.41432305129543892412516587103199
80,1.41685853949209953695394715547955
81,1.41936246732630126504639719139963
82,1.42183561131157146391801932607092
83,1.42427871963829568879547130883341
84,1.42669251353514930835429573297002
85,1.42907768854967370045516198686146
86,1.43143491575369058528881224414930
87,1.43376484287879058054004834166165
88,1.43606809538670868544540670810341
89,1.43834527747901589845765214865459
90,1.44059697305021295650096138658732
91,1.44282374658799073174997901802775
92,1.44502614402413352432676638594915
93,1.44720469353927923425407326753019
94,1.44935990632450746726522154140004
95,1.45149227730250547504189815640816
96,1.45360228581086000833470813223477
97,1.45569039624983881931175378295713
98,1.45775705869685267518575455147001
99,1.45980270948963527298115210760163
100,1.46182777178003210488651192762705
101,1.46383265606016001948309522971794
102,1.46581776066257364941937929039379
103,1.46778347223596696248838847909019
104,1.46973016619783092835438782105979
105,1.47165820716539521941843719023863
106,1.47356794936609110006872619801025
107,1.47545973702869457660613243107576
108,1.47733390475622964058103855622321
109,1.47919077788164284474336107486547
110,1.48103067280719803068259065781677
111,1.48285389732847416603619105088203
112,1.48466075094379981551119018155795
113,1.48645152514990223416973709158713
114,1.48822650372450031367306607241665
115,1.48998596299653016367571375492871
116,1.49173017210464377891365287057229
117,1.49345939324458952952318639879819
118,1.49517388190604218102195756638400
119,1.49687388709941643666703881965268
120,1.49855965157317215267017206626737
121,1.50023141202208110950595164167154
122,1.50188939928690630941597480444030
123,1.50353383854591257727998416134208
124,1.50516494949860956221636243636450
125,1.50678294654209867101127353320248
126,1.50838803894038026717810863166176
127,1.50998043098695689156259587357304
128,1.51156032216104567321896557226638
129,1.51312790727770102604450624901535
130,1.51468337663213034479255902816561
131,1.51622691613847000996594497041272
132,1.51775870746327403389202482416719
133,1.51927892815395589869657940840132
134,1.52078775176241286093494588117275
135,1.52228534796404388929630944193844
136,1.52377188267236871426661637728851
137,1.52524751814944216069215030999020
138,1.52671241311224432219506612100636
139,1.52816672283522503048668232979389
140,1.52961059924916562665594785060707
141,1.53104419103651648402063843698508
142,1.53246764372336065886179475162352
143,1.53388109976814539519241402756692
144,1.53528469864731603007477568737907
145,1.53667857693798265824131453216042
146,1.53806286839774204602331277190467
147,1.53943770404176908162557004883906
148,1.54080321221729309075183559136019
149,1.54215951867556081851161291815329
150,1.54350674664138971846168995863377
151,1.54484501688040746301198543103218
152,1.54617444776406797434066165643030
153,1.54749515533253292548682847281788
154,1.54880725335550261083706085081287
155,1.55011085339107442197230485176575
156,1.55140606484270679521169193392964
157,1.55269299501435967742955801904247
158,1.55397174916388332821970288299779
159,1.5552424305547191312128806442870
160,1.5565051405059787520577049907333
161,1.5577599784409601391565191571127
162,1.5590070419341598282281477640839
163,1.5602464267568364039673293291367
164,1.5614782269211797553664103433350
165,1.5627025347231347248875063769866
166,1.5639194407839296670442801303759
167,1.5651290340903571486834137728117
168,1.5663314020338494798498370687579
169,1.5675266304483941372966795673941
170,1.5687148036473288237263858079323
171,1.5698960044590563571940780602861
172,1.5710703142617172573017491193651
173,1.5722378130168554304844309218336
174,1.5733985793021127978728560805270
175,1.5745526903429868506361191044915
176,1.5757002220436808391275361746872
177,1.5768412490170798563416583518794
178,1.5779758446138819700490592138482
179,1.5791040809509108485250721446320
180,1.5802260289386408262418070746282
181,1.5813417583079570580799376192132
182,1.5824513376361784574159423829786
183,1.5835548343723664673290174523630
184,1.5846523148619439064339548204391
185,1.5857438443706456974334905731877
186,1.5868294871078224469794349516514
187,1.5879093062491206773100649531608
188,1.5889833639585551459480544232853
189,1.5900517214099969845163175650531
190,1.5911144388080933077161042554993
191,1.5921715754086375149854269363330
192,1.5932231895384066670063751974641
193,1.5942693386144842408741957826783
194,1.5953100791630816046752213546129
195,1.5963454668378761437960454516740
196,1.5973755564378797308272143891142
197,1.5984004019248519143450804702840
198,1.5994200564402719885134976866612
199,1.6004345723218827773213055874299
200,1.6014440011198200736170803491109
201,1.6024483936123387093203851205055
202,1.6034477998211486329214623325283
203,1.6044422690263716489517428162863
204,1.6054318497811304342872602607002
205,1.6064165899257797965974952497461
206,1.6073965366017931936370647271748
207,1.6083717362653103840062355176141
208,1.6093422347003604307854460066929
209,1.6103080770317658008719326366730
210,1.6112693077377390556180114882217
211,1.6122259706621794917279408244812
212,1.6131781090266799595360081237789
213,1.6141257654422482365543683792739
214,1.6150689819207579319746065358673
215,1.6160077998861281283483238429139
216,1.6169422601852457148978265130164
217,1.6178724030986343714927828997300
218,1.6187982683508791757364114579113
219,1.6197198951208101060905967724280
220,1.6206373220514569491610450674367
221,1.6215505872597735134256762624937
222,1.6224597283461483467648339928230
223,1.6233647824036955186176256048866
224,1.6242657860273405260555259881398
225,1.6251627753227038803087258381376
226,1.6260557859147859116788249678439
227,1.6269448529564614356770092871452
228,1.6278300111367860905798266942198
229,1.6287112946891214985384346279804
230,1.6295887373990839364703495716961
231,1.6304623726123183059887630072714
232,1.6313322332421078112746918324873
233,1.6321983517768143303806643833694
234,1.6330607602871656260162152456853
235,1.6339194904333825668990847988354
236,1.6347745734721560584244087110190
237,1.6356260402634773027625640110665
238,1.6364739212773231193798982584259
239,1.6373182466002017615453079669748
240,1.6381590459415613822220809849798
241,1.6389963486400654306754594434200
242,1.6398301836697378357275345064331
243,1.6406605796459820064138324410023
244,1.6414875648314753382582664734166
245,1.6423111671419435982577569573604
246,1.6431314141518177071242110977604
247,1.6439483330997743005492494604681
248,1.6447619508941676500255925855628
249,1.6455722941183479117202436475382
250,1.6463793890358760874995313373189
251,1.6471832615956335975124824621296
252,1.6479839374368292622266664778690
253,1.6487814418939087655141624639232
254,1.6495758000013662550389385066544
255,1.6503670364984619593693802347670
256,1.6511551758338459065770824125021
257,1.6519402421700941350605221207822
258,1.6527222593881538406465620515021
259,1.6535012510917042628146506214837
260,1.6542772406114336957421138474558
261,1.6550502510092329372223650834430
262,1.6558203050823099001817133912806
263,1.6565874253672242366762216413561
264,1.6573516341438474245204330621387
265,1.6581129534392468410746134803234
266,1.6588714050314959912216071300151
267,1.6596270104534141020645325704172
268,1.6603797909962351173429716899066
269,1.6611297677132103607654849647836
270,1.6618769614231405916817101021154
271,1.6626213927138467363289711101104
272,1.6633630819455732734960419471223
273,1.6641020492543317169969634740881
274,1.6648383145551814032507511167520
275,1.6655718975454514588246086071677
276,1.6663028177079022255712980505423
277,1.6670310943138336266523134105606
278,1.6677567464261322273727107351027
279,1.6684797929022684932739155812203
280,1.6692002523972363383320593973460
281,1.6699181433664428520668882540082
282,1.6706334840685457018111514034498
283,1.6713462925682414225686832848930
284,1.6720565867390017509779910705781
285,1.6727643842657648106241045272121
286,1.6734697026475771734250367405271
287,1.6741725592001918563663522439779
288,1.6748729710586186553413294459391
289,1.6755709551796314641425623453035
290,1.6762665283442333111143002181275
291,1.6769597071600769543873663873827
292,1.6776505080638439205849034634782
293,1.6783389473235858927553591761753
294,1.6790250410410234844292248880836
295,1.6797088051538044869255968886964
296,1.6803902554377291754507773063777
297,1.6810694075089326056952777880911
298,1.6817462768260332176620893241174
299,1.6824208786922445495634117582729
300,1.6830932282574518123705570769647
301,1.6837633405202537364340473942730
302,1.6844312303299717830855758432363
303,1.6850969123886238943299265019328
304,1.6857604012528663581351180116410
305,1.6864217113359052178262958351338
306,1.6870808569093764887822280752239
307,1.6877378521051923643868399644791
308,1.6883927109173608896632033837100
309,1.6890454472037751918545465489659
310,1.6896960746879726030977191659344
311,1.6903446069608672700908744779288
312,1.6909910574824537638871804033611
313,1.6916354395834830825620608495064
314,1.6922777664671128510270601297076
315,1.6929180512105310376322763231513
316,1.6935563067665545631986113352241
317,1.6941925459652003410840283399678
318,1.6948267815152340995279564940490
319,1.6954590260056941278351231895652
320,1.6960892919073899476563483077222
321,1.6967175915743798282997736422196
322,1.6973439372454232605031264406686
323,1.6979683410454119027049913694798
324,1.6985908149867779769545564305665
325,1.6992113709708818764399832956338
326,1.6998300207893772218611374727225
327,1.7004467761255561874019194694511
328,1.7010616485556722854958251946601
329,1.7016746495502455852431337278477
330,1.7022857904753467961447064109337
331,1.7028950825938616557283148255307
332,1.7035025370667366822907542125864
333,1.7041081649542066712928024702527
334,1.7047119772170021194119733333084
335,1.7053139847175408911671971330212
336,1.7059141982211001861484421601295
337,1.7065126283969716790789109587194
338,1.7071092858196008915431732536356
339,1.7077041809697068598697870791847
340,1.7082973242353881904901321984444
341,1.7088887259132112163325017473158
342,1.7094783962092827513826488015759
343,1.7100663452403070811810890317918
344,1.7106525830346271829460334254848
345,1.7112371195332519946375527846566
346,1.7118199645908672077394064277619
347,1.7124011279768331490986742510795
348,1.7129806193761665635290233618816
349,1.7135584483905098420834942856825
350,1.7141346245390852383194724252584
351,1.7147091572596361601411391622980
352,1.7152820559093552195668243022271
353,1.7158533297657983247815367736594
354,1.7164229880277862289333726886447
355,1.7169910398162939009404537015958
356,1.7175574941753259280795021115315
357,1.7181223600727811893842454697716
358,1.7186856464013060438435151077177
359,1.7192473619791317785282730797439
360,1.7198075155509052545558973474327
361,1.7203661157885044957516014774200
362,1.7209231712918457015972618151897
363,1.7214786905896762800718835081542
364,1.7220326821403589243684727726276
365,1.7225851543326449698464188996420
366,1.7231361154864359088804546700156
367,1.7236855738535359556091581550143
368,1.7242335376183924493044299033229
369,1.7247800148988287288999620857047
370,1.7253250137467651918477058986727
371,1.7258685421489313906043139237179
372,1.7264106080275681232212403919888
373,1.7269512192411194847473603437623
374,1.7274903835849191879182532364842
375,1.7280281087918618446960677717061
376,1.7285644025330706648698034225181
377,1.7290992724185533609218025549339
378,1.7296327259978494265655738977642
379,1.7301647707606706287523594151954
380,1.7306954141375314699050647370432
381,1.7312246635003724958107414710344
382,1.7317525261631735673357635190718
383,1.7322790093825617706205815906029
384,1.7328041203584089294489318376531
385,1.7333278662344223410410911104964
386,1.7338502540987293939178291683025
387,1.7343712909844518171648772286778
388,1.7348909838702734978899428539827
389,1.7354093396810025415495849616761
390,1.7359263652881247642446073899182
391,1.7364420675103489339148788761489
392,1.7369564531141473688023823132155
393,1.7374695288142893666581623932072
394,1.7379813012743660457808778811466
395,1.7384917771073094547485910291452
396,1.7390009628759056017014009753372
397,1.7395088650933010330715427855802
398,1.7400154902235029698847090967025
399,1.7405208446818715674124638903885
400,1.7410249348356085981224852390573
401,1.7415277670042386068345985314145
402,1.7420293474600832832879727597963
403,1.7425296824287318728477766996410
404,1.7430287780895055184295887499623
405,1.7435266405759129990751086304372
406,1.7440232759761039742025045328818
407,1.7445186903333168502395421246426
408,1.7450128896463187728224058053589
409,1.7455058798698406056253704424158
410,1.7459976669150094102883634848997
411,1.7464882566497726874488792930606
412,1.7469776548993179614556778808265
413,1.7474658674464887878131376792968
414,1.7479529000321936071896736361824
415,1.7484387583558117299418605896089
416,1.7489234480755928807759521726478
417,1.7494069748090531520220259106089
418,1.7498893441333645287465151540543
419,1.7503705615857422642032003643000
420,1.7508506326638250875338143616065
421,1.7513295628260521958910758212173
422,1.7518073574920363125754625841726
423,1.7522840220429306473149723762160
424,1.7527595618217933724014338972559
425,1.7532339821339459940324485174653
426,1.7537072882473292256871015100533
427,1.7541794853928538481545216981466
428,1.7546505787647465698906654481215
429,1.7551205735208948000790609542099
430,1.7555894747831831964896011557105
431,1.7560572876378294917761874571165
432,1.7565240171357167477155785222843
433,1.7569896682927173752708764760912
434,1.7574542460900200184038715914773
435,1.7579177554744471252964969931165
436,1.7583802013587711079582949012370
437,1.7588415886220272515745746813223
438,1.7593019221098223556457438756825
439,1.7597612066346397882066819531936
440,1.7602194469761420243247817983296
441,1.7606766478814678287137999570374
442,1.7611328140655276460943931079341
443,1.7615879502112968469800467492444
444,1.7620420609701014482431793894966
445,1.7624951509619056391036146140213
446,1.7629472247755921368711222278433
447,1.7633982869692425415931544823385
448,1.7638483420704109077917521653176
449,1.7642973945763983737758665006123
450,1.7647454489545210009520173674897
451,1.7651925096423783262085688421186
452,1.7656385810481154687031803288806
453,1.7660836675506845341053712858696
454,1.7665277735001017052238259618719
455,1.7669709032177036428709514754398
456,1.7674130609963984939428680793760
457,1.7678542511009162024021817138350
458,1.7682944777680545190385830390687
459,1.7687337452069232239115666842746
460,1.7691720575991862037964110393852
461,1.7696094190992992343373057106755
462,1.7700458338347466799357909887852
463,1.7704813059062757151237023084400
464,1.7709158393881262283043080823553
465,1.7713494383282603765743933741412
466,1.7717821067485889223018511552331
467,1.7722138486451936319518220746613
468,1.7726446679885507527795304283319
469,1.7730745687237480440626510413239
470,1.7735035547707028873911356216325
471,1.7739316300243757430970063526488
472,1.7743587983549832504117650512785
473,1.7747850636082063222301743653797
474,1.7752104296054007384485692620861
475,1.7756349001437991606087367729416
476,1.7760584789967170816264499176232
477,1.7764811699137530435761038538074
478,1.7769029766209877994936411765894
479,1.7773239028211813085552627605188
480,1.7777439521939679591858535382444
481,1.7781631283960485709447746459684
482,1.7785814350613827439470263012038
483,1.7789988758013769357891950174564
484,1.7794154542050710857046645520871
485,1.7798311738393252627948004917636
486,1.7802460382490009230982374002463
487,1.7806600509571436242496216208030
488,1.7810732154651617941816392683755
489,1.7814855352530047819378337411689
490,1.7818970137793380536070461143197
491,1.7823076544817176675453269416934
492,1.7827174607767626169538927838843
493,1.7831264360603250147019948109457
494,1.7835345837076592143108928241040
495,1.7839419070735880594709385273013
496,1.7843484094926695063853672116056
497,1.7847540942793593043331463364657
498,1.7851589647281736795724729527756
499,1.7855630241138495197729310678920
500,1.785966275691504189311712199388
501,1.786368722696790721307912311555
502,1.786770368346055841405044411951
503,1.787171215836492291256802357849
504,1.787571268346293295376373353598
505,1.787970529034802018636203393568
506,1.788369001042661744322009633073
507,1.788766687491964620581446939279
508,1.789163591486398615036531481333
509,1.789559716111390908256011847706
510,1.789955064434253779125939104232
511,1.790349639504326212997924731611
512,1.790743444353115132608121047473
513,1.791136481994434867301578072143
514,1.791528755424545536825255770152
515,1.791920267622290723784497078052
516,1.792311021549232644951882185402
517,1.792701020149785896018100125547
518,1.793090266351351555022596634653
519,1.793478763064448426260666099314
520,1.793866513182844281524109842421
521,1.794253519583683893756162140843
522,1.794639785127618139178564359983
523,1.795025312658930604900581022868
