Eigenstate,Potential Energy
1,0.500000000041967341380861162004249615
2,0.64623093792505557091608537831705122
3,0.73633761050965499583625812985572256
4,0.79966527949029395349366562470539265
5,0.8480465781889562358359007888753518
6,0.8870660013628097717985573910636611
7,0.9197208304511992686813220120411604
8,0.9477838518316954659533294796975726
9,0.9723835645109470117551817065568261
10,0.9942802226377648714407379022221841
11,1.0140093963533557489982778387551375
12,1.0319621809624762965544163516538059
13,1.0484327065310372042412378013255980
14,1.0636476707422718021583235751895575
15,1.0777854547109252124605943030678437
16,1.090988927853702161914431885520349
17,1.103374281350773203855188947837963
18,1.115037279151975533796836575544716
19,1.126057781080791606320720170151966
20,1.136503080468286328149389483692622
21,1.146430410234804806722336574051465
22,1.155888854048712921311798279003392
23,1.164920824262922318140421485591606
24,1.173563219315312836387680241064694
25,1.181848340524659111781274034655991
26,1.189804625898218497625767048884942
27,1.197457243094307038908924857298371
28,1.204828572781339423923975834212214
29,1.211938605839781014890612178431347
30,1.218805272203972488733228727857280
31,1.225444714994849118361809026600231
32,1.231871520516677139547567612986861
33,1.238098912381281843975816355630064
34,1.244138916272695772631778659085533
35,1.250002500525960317785487949125681
36,1.255699696660335163160503428605076
37,1.261239703203085443263198307732587
38,1.266630975509597759644203447097816
39,1.271881303787727542300163248510541
40,1.276997881138459460846109700788314
41,1.281987363108212316344026950082976
42,1.286855919993127243150673008123708
43,1.291609282929191705218981625209306
44,1.296252784633957755774336839904025
45,1.300791395528043460283837234065564
46,1.305229755851470100038926041968325
47,1.309572204296411161337408585358187
48,1.313822803600342751000913184551442
49,1.317985363478922535066056008519591
50,1.32206346122380158383349737040258
51,1.32606046024510654398606710398237
52,1.32997952679998434418732711802550
53,1.33382364511615152202567790645182
54,1.33759563109182912871285312893949
55,1.34129814472996867543365817940993
56,1.34493370144460001511860873314295
57,1.34850468235993308829205133181107
58,1.35201334370804827535750099974746
59,1.35546182541825615040665435234683
60,1.35885215898018292393639038272527
61,1.36218627465307363435349923775466
62,1.36546600808550414303345820943126
63,1.36869310640245109867898354261764
64,1.37186923381035655680204965275769
65,1.37499597676528910018030019233218
66,1.37807484874445596708465691305986
67,1.38110729465705840274912753885200
68,1.38409469492672628874528722764635
69,1.38703836927445543419715207034010
70,1.38993958022804264450795822594049
71,1.39279953638141497953949797059964
72,1.39561939542495137080449071222068
73,1.39840026696584176082923926189233
74,1.40114321515571007929079422630347
75,1.40384926114109626942999580291608
76,1.40651938535094302148627080378439
77,1.40915452963393047148210999229638
78,1.41175559925733632550480801451257
79,1.41432346477805204964078115313827
80,1.41685896379544764007323700894845
81,1.41936290259492814637746392771285
82,1.42183605769026367049427185181658
83,1.42427917727208583007253943627283
84,1.42669298256931938315557606133945
85,1.42907816912975843501235699742280
86,1.43143540802548078252521349946649
87,1.43376534698833648074583605714587
88,1.43606861148032333849555045902830
89,1.43834580570327854772436747881733
90,1.44059751355197243461401366790934
91,1.44282429951436886835944280540758
92,1.44502670952252856602411337070755
93,1.44720527175736927680875215487533
94,1.44936049741025390033513665606167
95,1.45149288140415643951746483568315
96,1.45360290307695386647734887042933
97,1.45569102682920763784902012159679
98,1.45775770273862572152637751291074
99,1.45980336714324252471464556468906
100,1.46182844319520777273310745162793
101,1.46383334138694608386105367765687
102,1.46581846005132341079792568075565
103,1.46778418583734860569571692504312
104,1.46973089416283110101149425785951
105,1.47165894964532262467068426273450
106,1.47356870651258010378832661367360
107,1.47546050899370882923997917061142
108,1.47733469169206571381954815298672
109,1.47919157994093388318729056682946
110,1.48103149014291741868600407507908
111,1.48285473009393920990508777045530
112,1.48466159929267544123856653936911
113,1.48645238923620470088912461308980
114,1.48822738370260094301397037774247
115,1.48998685902115908520562627381810
116,1.49173108433089369185268618731661
117,1.49346032182791948091875271791114
118,1.49517482700228136057212423629699
119,1.49687484886476798838276782730476
120,1.49856063016421700356795373288683
121,1.50023240759578181552366547571986
122,1.50189041200061091874634684863722
123,1.50353486855735851131735885706958
124,1.50516599696592751431396589781977
125,1.50678401162381652324764033010739
126,1.50838912179542702533279831712935
127,1.50998153177466663850277028778087
128,1.51156144104116154090003302877310
129,1.51312904441037918632942818661941
130,1.51468453217794401929602883859693
131,1.51622809025841349913114629662345
132,1.51775990031876676550945759767824
133,1.51928013990684649607566115617164
134,1.52078898257498323094108088232260
135,1.52228659799901333046760782599458
136,1.52377315209289804522598662161921
137,1.52524880711913786907239213880544
138,1.52671372179516273429603440028799
139,1.52816805139587650188550949292429
140,1.52961194785251875399293601177766
141,1.53104555984800233818518089498652
142,1.53246903290887703980447516938127
143,1.53388250949406110859127151900511
144,1.53528612908047518608545704950778
145,1.53668002824570899256270533968633
146,1.53806434074784326351210800771819
147,1.53943919760254122269510616655619
148,1.54080472715752492079239153423360
149,1.54216105516453824057138567272917
150,1.54350830484890020942939680334047
151,1.54484659697674453354435265858478
152,1.54617604992003565277969575371902
153,1.54749677971945026601400675827664
154,1.54880890014520822611350948564126
155,1.55011252275593104051612800920518
156,1.55140775695560584376581353601551
157,1.55269471004872588857526553633826
158,1.55397348729367937349356546507706
159,1.5552441919544502799865813931332
160,1.5565069253506975564427432284256
161,1.5577617869062711451977765300354
162,1.5590088741962243136527043150655
163,1.5602482829923771427569971671710
164,1.5614801073074858094249670135812
165,1.5627044394380662630757779983318
166,1.5639213700059228118586150063947
167,1.5651309879984288508554461430246
168,1.5663333808076024211478932515091
169,1.5675286342680216618115504626623
170,1.5687168326936198979267488529715
171,1.5698980589134005590391890317881
172,1.5710723943061097947017324690780
173,1.5722399188339021894008514245805
174,1.5734007110750354203550274914702
175,1.5745548482556278430910410445307
176,1.5757024062805087111241438031400
177,1.5768434597631942902526952188365
178,1.5779780820550190218364473662377
179,1.5791063452734481799776644139404
180,1.5802283203296029689769500885459
181,1.5813440769550207096232176353864
182,1.5824536837276778096761627470194
183,1.5835572080972985677885332233678
184,1.5846547164099740523772442683870
185,1.5857462739321128635398668970481
186,1.5868319448737447466086664242566
187,1.5879117924112008578128509937521
188,1.5889858787091861183361756366158
189,1.5900542649422673878304424621319
190,1.5911170113157931084324726572291
191,1.5921741770862636418054923300119
192,1.5932258205811686813769841102633
193,1.5942719992183100435889523026513
194,1.5953127695246231789109613361902
195,1.5963481871545153349417273842631
196,1.5973783069077340634657937408705
197,1.5984031827467804467524305633228
198,1.5994228678138812050417451438623
199,1.6004374144475325190375364839841
200,1.6014468741986295075718463227647
201,1.6024512978461923368238264303482
202,1.6034507354127023372088673031846
203,1.6044452361790587826235401409430
204,1.6054348486991679469125030386153
205,1.6064196208141744028732812285466
206,1.6073995996663475825004165930058
207,1.6083748317126294690986443185809
208,1.6093453627378576426740839955246
209,1.6103112378676694214355741679244
210,1.6112725015810985950096080631649
211,1.6122291977228721083298356797926
212,1.6131813695154169233276580884996
213,1.6141290595705814363168756608084
214,1.6150723099010864267601099199586
215,1.6160111619317047436469383811944
216,1.6169456565101836839386571291232
217,1.6178758339179140221201588816157
218,1.6188017338803546633066034180745
219,1.6197233955772161928389181613160
220,1.6206408576524158304935487155457
221,1.6215541582238016915941242201504
222,1.6224633348926635523884349801045
223,1.6233684247530236805194051000773
224,1.6242694644007227898860116423808
225,1.6251664899423036764343310672023
226,1.6260595370036960728171116259425
227,1.6269486407387113647659319057123
228,1.6278338358373489793727679319102
229,1.6287151565339215974222741043001
230,1.6295926366150038760081477969092
231,1.6304663094272064706945642822872
232,1.6313362078847857661322798686364
233,1.6322023644770843006240510644122
234,1.6330648112758180306943911934741
235,1.6339235799422036067532478468186
236,1.6347787017339353586113419856826
237,1.6356302075120156109628256011862
238,1.6364781277474400598357349057045
239,1.6373224925277436455781647832576
240,1.6381633315634090757859047930186
241,1.6390006741941422795072725322369
242,1.6398345493950176486627082331829
243,1.6406649857824970974395724086350
244,1.6414920116203246278845989721532
245,1.6423156548253007747914249548322
246,1.6431359429729394484371385678126
247,1.6439529033030085569390786162362
248,1.6447665627249619887726288783192
249,1.6455769478232579239509443493779
250,1.6463840848625738579735496551996
251,1.6471879997929162379564710612167
252,1.6479887182546275088449631510784
253,1.6487862655832956413127463071283
254,1.6495806668145657976063287144266
255,1.6503719466888580147644749240427
256,1.6511601296559909899814613394148
257,1.6519452398797183588591109261083
258,1.6527273012421739106081814510792
259,1.6535063373482325430508693718036
260,1.6542823715297873431303086984115
261,1.6550554268499431059862493253783
262,1.6558255261071310173299416750627
263,1.6565926918391433490074818303093
264,1.6573569463270936179107855379617
265,1.6581183115993007327709362856289
266,1.6588768094350992958726799445976
267,1.6596324613685792722293288795407
268,1.6603852886922550592237442441777
269,1.6611353124606682259215599205993
270,1.6618825534939196454879118712330
271,1.6626270323811403039511076916934
272,1.6633687694838947641646059175261
273,1.6641077849395247273683226348445
274,1.6648440986644299006543348517874
275,1.6655777303572900452028783601500
276,1.6663086995022264829286686154735
277,1.6670370253719105448382281262140
278,1.6677627270306107150327498001531
279,1.6684858233371899728126927504012
280,1.6692063329480454257407147161999
281,1.6699242743199981224775881784806
282,1.6706396657131305416508010224119
283,1.6713525251935749691935685062716
284,1.6720628706362499206811446101863
285,1.6727707197275514159172559738710
286,1.6734760899679951305070747347307
287,1.6741789986748144837004658615148
288,1.6748794629845110642736590581702
289,1.6755774998553620425054461877167
290,1.6762731260698853007681950089881
291,1.6769663582372601236660883456264
292,1.6776572127957063326202232692299
293,1.6783457060148257706674978017408
294,1.6790318539979011743819141613568
295,1.6797156726841545200548532704140
296,1.6803971778509724296888754636784
297,1.6810763851160885685227948429534
298,1.6817533099397323508329017712476
299,1.6824279676267407568593206085094
300,1.6831003733286350114548051433925
301,1.6837705420456625358851595040045
302,1.6844384886288062657053932332815
303,1.6851042277817585078325326390976
304,1.6857677740628629143363626604770
305,1.6864291418870260014663447992101
306,1.6870883455275974771269378001495
307,1.6877453991182165587673154664798
308,1.6884003166546317601260933787113
309,1.6890531119964902361099620518740
310,1.6897037988690970209648797869211
311,1.6903523908651477546563607571839
312,1.6909989014464324106046149751215
313,1.6916433439455114175367421841089
314,1.6922857315673659797437300542640
315,1.6929260773910219153989816630137
316,1.6935643943711483885951589840623
317,1.6942006953396290737182710730658
318,1.6948349930071111034191396455782
319,1.6954672999645289417589800627907
320,1.6960976286846031838029964622287
321,1.6967259915233182006109760071835
322,1.6973524007213747440726368381963
323,1.6979768684056210256418279997108
324,1.6985994065904612461259845761061
325,1.6992200271792433385282599731202
326,1.6998387419656241611852338936367
327,1.7004555626349149619731363058271
328,1.7010705007654043027938752224080
329,1.7016835678296634192173810916823
330,1.7022947751958304469635301200061
331,1.7029041341288749538183468925209
332,1.7035116557918438382261755205588
333,1.7041173512470889731144722821761
334,1.7047212314574747789749186311406
335,1.7053233072875700411350232930939
336,1.7059235895048200292731837184226
337,1.7065220887807017914246909413035
338,1.7071188156918636813329546213702
339,1.7077137807212451836544847539246
340,1.7083069942591831283611664667665
341,1.7088984666045000079202906230781
342,1.7094882079655768944041260329925
343,1.7100762284614105943228143716552
344,1.7106625381226550348899928854396
345,1.7112471468926487010612528126344
346,1.7118300646284255981428919541101
347,1.7124113011017133053359573583343
348,1.7129908659999149319436977247030
349,1.7135687689270785211728467829183
350,1.7141450194048514438759199168185
351,1.7147196268734218698437000555990
352,1.7152926006924469990205297738734
353,1.7158639501419673370285681545566
354,1.7164336844233084294847061892165
355,1.7170018126599704204028202506334
356,1.7175683438985036444795062917096
357,1.7181332871093734923177439183237
358,1.7186966511878137926058434629991
359,1.7192584449546644564081770078468
360,1.7198186771572023215047799601405
361,1.7203773564699569416670245491846
362,1.7209344914955178024894426956370
363,1.7214900907653275594104837246711
364,1.7220441627404663219371066811718
365,1.7225967158124252204622037441081
366,1.7231477583038681333667934595453
367,1.7236972984693844664402483703433
368,1.7242453444962297733723314521239
369,1.7247919045050588498865856441881
370,1.7253369865506470147160507437032
371,1.7258805986226024307574383405198
372,1.7264227486460684229093552374326
373,1.7269634444824157593382992205774
374,1.7275026939299292046809251773388
375,1.7280405047244790367805020580787
376,1.7285768845401889832040872254914
377,1.7291118409900923667814913696741
378,1.7296453816267796276076924314027
379,1.7301775139430390613431125218393
380,1.7307082453724875306081961808282
381,1.7312375832901940249418552499578
382,1.7317655350132931875261070289949
383,1.7322921078015934833736945144792
384,1.7328173088581749727129987505387
385,1.7333411453299803108613421137569
386,1.7338636243083996332732054024024
387,1.7343847528298450751360847275376
388,1.7349045378763188623480007533666
389,1.7354229863759756485972766423003
390,1.7359401052036762876866662053553
391,1.7364559011815333580777720034160
392,1.7369703810794520480689385515571
393,1.7374835516156638751292119935502
394,1.7379954194572518205211623558125
395,1.7385059912206697361230498602466
396,1.7390152734722556743547675160834
397,1.7395232727287387711533436944758
398,1.7400299954577396901714483306779
399,1.7405354480782631940289081761105
400,1.7410396369611871426149316922638
401,1.7415425684297439674010787639898
402,1.7420442487599953670233084795640
403,1.7425446841813030449138995874548
404,1.7430438808767933821172576166020
405,1.7435418449838135107776310611862
406,1.7440385825943848973778648628589
407,1.7445340997556515524958046047780
408,1.7450284024703203703171400165046
409,1.7455214966970964590302810516258
410,1.7460133883511159766295785603535
411,1.7465040833043707321934995147795
412,1.7469935873861281352782593733029
413,1.7474819063833475725367713960998
414,1.7479690460410896354616492842339
415,1.7484550120629224832675618000555
416,1.7489398101113217706009141260388
417,1.7494234458080669886184762055189
418,1.7499059247346313827293371012663
419,1.7503872524325697255687271002011
420,1.7508674344038989271857459572199
421,1.7513464761114754346874071562389
422,1.7518243829793687030054037008668
423,1.7523011603932285729857242078099
424,1.7527768137006501705925036979159
425,1.7532513482115327066480776001697
426,1.7537247691984357840169402712425
427,1.7541970818969306969312987881820
428,1.7546682915059467362121840668166
429,1.7551384031881164128445543854972
430,1.7556074220701124620821877894829
431,1.7560753532429841318067588958248
432,1.7565422017624899047306596646820
433,1.7570079726494219924113076528520
434,1.7574726708899336990923839256390
435,1.7579363014358574791186823595333
436,1.7583988692050215889951953528266
437,1.7588603790815634955373948265935
438,1.7593208359162390222568340137716
439,1.7597802445267279153671696511357
440,1.7602386096979369007073897704861
441,1.7606959361822973915180802938347
442,1.7611522287000614108023588406551
443,1.7616074919395953760536136757660
444,1.7620617305576663658081614222905
445,1.7625149491797301987728994934552
446,1.7629671524002123499645103997498
447,1.7634183447827888731252782236537
448,1.7638685308606605477083099648599
449,1.7643177151368280910332619113480
450,1.7647659020843605881500223705186
451,1.7652130961466646426054094183260
452,1.7656593017377470895601009878478
453,1.7661045232424770144304035091511
454,1.7665487650168434661086528203263
455,1.7669920313882124887398120158853
456,1.7674343266555787691622807567199
457,1.7678756550898165958289453092623
458,1.7683160209339265252182521617649
459,1.7687554284032802697724906270644
460,1.7691938816858634498250201337562
461,1.7696313849425140593575256774350
462,1.7700679423071598587591922877358
463,1.7705035578870532984820959177371
464,1.7709382357630021346237518936801
465,1.7713719799895997052999345677034
466,1.7718047945954519986348662845702
467,1.7722366835834007930187669280813
468,1.7726676509307478854071961588033
469,1.7730977005894728844987901609682
470,1.7735268364864520934714960442341
471,1.7739550625236727495280147937947
472,1.7743823825784469180085903435978
473,1.7748088005036203921227740090081
474,1.7752343201277841024434760080018
475,1.7756589452554769590773715201081
476,1.7760826796673926404700559682661
477,1.7765055271205806620068320104655
478,1.7769274913486464005586942184186
479,1.7773485760619489645251460579732
480,1.7777687849477973041254361699190
481,1.7781881216706431129845259373107
482,1.7786065898722740899781474823243
483,1.7790241931720029415119666349508
484,1.7794409351668549441734591253921
485,1.7798568194317555448172153738832
486,1.7802718495197125830663132109002
487,1.7806860289619999852053288512858
488,1.7810993612683375261469375964255
489,1.7815118499270698877709335553526
490,1.7819234984053428768851020518103
491,1.7823343101492789372137178732523
492,1.7827442885841505437290037424904
493,1.7831534371145514544641454620167
494,1.7835617591245669139806019527830
495,1.7839692579779410011201407741483
496,1.7843759370182443656021485557158
497,1.7847817995690380391281987112834
498,1.7851868489340372663903974457601
499,1.7855910883972728534528509150685
500,1.785994521223252164128465639816
501,1.786397150657115510515138126775
502,1.786798979924795393000249862631
503,1.787200012233170057991536998903
504,1.787600250770219217343534205645
505,1.787999698705174777080931693401
506,1.788398359188672305645723565449
507,1.788796235352901089834864579097
508,1.789193330311752418530714049354
509,1.789589647160964325263515088478
510,1.789985188978268842990227196539
511,1.790379958823535002323071957437
512,1.790773959738911473562836715624
513,1.791167194748967468440437616515
514,1.791559666860832578204930858414
515,1.791951379064335922536426493221
516,1.792342334332142819865367721880
517,1.792732535619890054084641624292
518,1.793121985866321523300814209854
519,1.793510687993421052836223840090
520,1.793898644906545229761355409752
521,1.794285859494553054472372559028
522,1.794672334629936685812555312572
523,1.795058073168949717196240295759
