Eigenstate,Potential Energy
1,0.500000000022327456898248736471908548
2,0.64623093779685654804730862797036173
3,0.73633761013308029073485415185571948
4,0.79966527870593064353615472488157795
5,0.8480465768302758289190928136455377
6,0.8870659992603676546209539033190376
7,0.9197208274341820092404708196943101
8,0.9477838477285661044962244148630229
9,0.9723835591497451233862483432125917
10,0.9942802158462588627159774272423461
11,1.0140093879591255929306350667441608
12,1.0319621707929608199913460125552318
13,1.0484326944135620773212592424053428
14,1.0636476565040664216805618965845909
15,1.0777854381791328850531300265401269
16,1.090988908855386078348530918857836
17,1.103374259712919675425981853850465
18,1.115037254701495392440355996287238
19,1.126057753644520339664324455251624
20,1.136503049872983321988414626947788
21,1.146430376307151944167134556107681
22,1.155888816615312709253934862830935
23,1.164920783150295660305437590672821
24,1.173563174349896537890813915783510
25,1.181848291532803176666795363515071
26,1.189804572706183264584326098715174
27,1.197457185528260188857428993121606
28,1.204828510667352884871902283025679
29,1.211938539003827783503466378481234
30,1.218805200471923383569115190786748
31,1.225444638192469476446678801105424
32,1.231871438469623465455815520024224
33,1.238098824915098418676790265174458
34,1.244138823212811227894700904982160
35,1.250002401697684180794256979588007
36,1.255699591888854375095502119379993
37,1.261239592313460854900568317287749
38,1.266630858326760606460553267166327
39,1.271881180136475901119750138254723
40,1.276997750843454689703592263083137
41,1.281987225993975478940392198169059
42,1.286855775884035519038488901701168
43,1.291609131649474786654749386566103
44,1.296252626007694232011909052627012
45,1.300791229379157189946810601873857
46,1.305229582003726572096415248656411
47,1.309572022573413845112489877947716
48,1.313822613825529435560893524430256
49,1.317985165475561658275994844968912
50,1.32206325481498855129689017033992
51,1.32606024525376003804752645683377
52,1.32997930304884262313013149082598
53,1.33382341242776870956099972388131
54,1.33759538928857149382635692657389
55,1.34129789363401090262824697995567
56,1.34493344087792146506872355635901
57,1.34850441214431404890457204421227
58,1.35201306366506620321642578214688
59,1.35546153536928190256315731925881
60,1.35885185874637697999208074120693
61,1.36218596405538230877253654070715
62,1.36546568694465578760838569333727
63,1.36869277453895229506558533236618
64,1.37186889104448829902998964010407
65,1.37499562291710296703861595871899
66,1.37807448363377028427431097260077
67,1.38110691810345439468863495812528
68,1.38409430674954421990981525469388
69,1.38703796929279073986634164133694
70,1.38993916826074205079320592175604
71,1.39279911224707261255700952677153
72,1.39561895894190485485669421363892
73,1.39839981795216830545340988429377
74,1.40114275342922255503052748366391
75,1.40384878651933927218197583152382
76,1.40651889765118892527202179778763
77,1.40915402867317546949163777988379
78,1.41175508485229645925652837782529
79,1.41432293674515922609975889106550
80,1.41685842195084563656754056947053
81,1.41936234675446860315020597458343
82,1.42183548766950207072695736667638
83,1.42427859288627746721332025812308
84,1.42669238363341531538418475017911
85,1.42907755545840142667162421111109
86,1.43143477943300123234741743787170
87,1.43376470328874833670032583382672
88,1.43606795248731999908250700239970
89,1.43834513123022874953795689955573
90,1.44059682341191612599659592266889
91,1.44282359352001306896695157302217
92,1.44502598748624321212123280489988
93,1.44720453349118305211099702850999
94,1.44935974272585005221349796813699
95,1.45149211011286858037978720863151
96,1.45360211498976176013922039154557
97,1.45569022175673297070543150237193
98,1.45775688049112785833410116262118
99,1.45980252753061424879374147736829
100,1.46182758602697101039465144210440
101,1.46383246647224761286669684978458
102,1.46581756719893055265551391022138
103,1.46778327485564490159382949711478
104,1.46972996485981197119421736454090
105,1.47165800182859101105266182968191
106,1.47356773998934209560861688730616
107,1.47545952357076927155184284323470
108,1.47733368717582379861187839570059
109,1.47919055613737872293189436172536
110,1.48103044685762360210356445548656
111,1.48285366713206233974110765797309
112,1.48466051645894765383915919914319
113,1.48645128633493016736505458294849
114,1.48822626053765135177977902367866
115,1.48998571539596910567925431546760
116,1.49172992004845641909942588594127
117,1.49345913669078186102182321128136
118,1.49517362081253959651074045533615
119,1.49687362142406292619683053881304
120,1.49855938127372949858698224620406
121,1.50023113705622807843608683005115
122,1.50188911961223784128351281307278
123,1.50353355411993897132513773739307
124,1.50516466027875565998308822124059
125,1.50678265248570303627228621569500
126,1.50838774000469436276526644485934
127,1.50998012712914425307040918761040
128,1.51156001333818107954880183829959
129,1.51312759344676966675682880321378
130,1.51468305775002698423436148547999
131,1.51622659216199814814032039424557
132,1.51775837834914506403658062017272
133,1.51927859385878826153723951238576
134,1.52078741224273119558143946629852
135,1.52228500317627818074540903252524
136,1.52377153257285343747902614512369
137,1.52524716269441542120867759313112
138,1.52671205225784699325751755038837
139,1.52816635653749988662864788903601
140,1.52961022746405647372850479024414
141,1.53104381371986728561769041953534
142,1.53246726083091465910953922057278
143,1.53388071125554423786727628255239
144,1.53528430447009887401380325063175
145,1.53667817705158528900885836293741
146,1.53806246275749598379756236095327
147,1.53943729260290068526825467511026
148,1.54080279493492265802418014871301
149,1.54215909550470168239937345951113
150,1.54350631753694733957183821422770
151,1.54484458179717851800335470648586
152,1.54617400665673944035065901730575
153,1.54749470815568116051596830966982
154,1.54880680006359243005291390289024
155,1.55011039393845816989413439298811
156,1.55140559918362341373674338205063
157,1.55269252310293376966179832701506
158,1.55397127095412421806147562920091
159,1.5552419460005199186796481885572
160,1.5565046495611153642758172991408
161,1.5577594810590903770036162712460
162,1.5590065380688224085755753244650
163,1.5602459163614499974836211926568
164,1.5614777099490420198406125578618
165,1.5627020111274213340307985372021
166,1.5639189105176933347281117634836
167,1.5651284971065266485720333694305
168,1.5663308582852286603847448055857
169,1.5675260798876609319903585015635
170,1.5687142462270342567222038540685
171,1.5698954401316235440490520786072
172,1.5710697429794404009484761297664
173,1.5722372347318988123282411361456
174,1.5733979939665097639798601590067
175,1.5745520979086387929675006440303
176,1.5756996224623561717751604527969
177,1.5768406422404129867196857372727
178,1.5779752305933722649959208473321
179,1.5791034596379215952698641822661
180,1.5802254002843981881887719958061
181,1.5813411222635490253643564522131
182,1.5824506941525537921844491701777
183,1.5835541834003336436969710157232
184,1.5846516563521700450721289202660
185,1.5857431782736554947359707785259
186,1.5868288133739970987643274367948
187,1.5879086248286967970041446043376
188,1.5889826748016236772061810845683
189,1.5900510244665021082260173450763
190,1.5911137340278313433374128147899
191,1.5921708627412558161755912442187
192,1.5932224689334025114787250047038
193,1.5942686100212037144400625166093
194,1.5953093425307184794173214170890
195,1.5963447221154707503214989274550
196,1.5973748035743178245477890759470
197,1.5983996408688635357319712278025
198,1.5994192871404303172734403610951
199,1.6004337947266029804404904094176
200,1.6014432151773581472188537868163
201,1.6024475992707903142822893853274
202,1.6034469970284479241967950428510
203,1.6044414577302900985402920605677
204,1.6054310299292756477995298621236
205,1.6064157614655943233562010242565
206,1.6073956994805533302592725994141
207,1.6083708904301249714090435779377
208,1.6093413800981696445576980463986
209,1.6103072136093399349538722477536
210,1.6112684354416772992304493137831
211,1.6122250894389086994919595275460
212,1.6131772188224534147237688943778
213,1.6141248662031444074110436173001
214,1.6150680735926792210510709322998
215,1.6160068824147996147836844623906
216,1.6169413335162138895903267107297
217,1.6178714671772658650972267141108
218,1.6187973231223594794256339656305
219,1.6197189405301422850180115525777
220,1.6206363580434603485608633818767
221,1.6215496137790824572867043050377
222,1.6224587453372108290133976440236
223,1.6233637898107718867445121280541
224,1.6242647837945021571213182318384
225,1.6251617633938318492613793519812
226,1.6260547642335696519167238201280
227,1.6269438214663973917902577647875
228,1.6278289697811763632018938052186
229,1.6287102434110724812397405163127
230,1.6295876761415049446247601601983
231,1.6304613013179201975434127159382
232,1.6313311518534015993529310470288
233,1.6321972602361097876473399226842
234,1.6330596585365698807338837184380
235,1.6339183784147986906031944044621
236,1.6347734511272816451447902683498
237,1.6356249075338030397179540008147
238,1.6364727781041313490716374689035
239,1.6373170929245650351757447904302
240,1.6381578817043410043624324403006
241,1.6389951737819099951073015216460
242,1.6398289981310817523815714822905
243,1.6406593833670440193286595190727
244,1.6414863577522570344814038674425
245,1.6423099492022279076104037135890
246,1.6431301852911673927505479908246
247,1.6439470932575304401704086629958
248,1.6447607000094481078177530757748
249,1.6455710321300458007355004669920
250,1.6463781158826582225475487526506
251,1.6471819772159389384202111148948
252,1.6479826417688673473926613681990
253,1.6487801348756581356732471890585
254,1.6495744815705728671523099659357
255,1.6503657065926375905544267116419
256,1.6511538343902665479903839771143
257,1.6519388891257983756468416697110
258,1.6527208946799412406657748402036
259,1.6534998746561337170577398125489
260,1.6542758523848217863467559106690
261,1.6550488509276522759974077787453
262,1.6558188930815874603495938886412
263,1.6565860013829396739410144475254
264,1.6573501981113313873687574956852
265,1.6581115052935792702155493660611
266,1.6588699447075044080712112891698
267,1.6596255378856718861792232634323
268,1.6603783061190597727055889818526
269,1.6611282704606617708268892670820
270,1.6618754517290192630596916822501
271,1.6626198705116920310654415749296
272,1.6633615471686616297727108174289
273,1.6641005018356748582085720706790
274,1.6648367544275245353341477551527
275,1.6655703246412714557409761985075
276,1.6663012319594058028378161757776
277,1.6670294956529555028187464116829
278,1.6677551347845332733372011349095
279,1.6684781682113338693315547999559
280,1.6691986145880736188485736841000
281,1.6699164923698801376689334342189
282,1.6706318198151297189836449955804
283,1.6713446149882356105485566709390
284,1.6720548957623843358328253323773
285,1.6727626798222268664026312119697
286,1.6734679846665206702662122578927
287,1.6741708276107276954519697761043
288,1.6748712257895646905761395423993
289,1.6755691961595105104451899369828
290,1.6762647555012711392006590417799
291,1.6769579204222002719273745166764
292,1.6776487073586783396122104078927
293,1.6783371325784538832086162726296
294,1.6790232121829423137020286805830
295,1.6797069621094841453015119588860
296,1.6803883981335702872984464200253
297,1.6810675358710243262971650661948
298,1.6817443907801511155496566937434
299,1.6824189781638484742299834387365
300,1.6830913131716837472320558326634
301,1.6837614108019356369064696239820
302,1.6844292859036033996467763119272
303,1.6850949531783805804320527860344
304,1.6857584271825968628326727114459
305,1.6864197223291294629836697205429
306,1.6870788528892833307230207230081
307,1.6877358329946373398460365471330
308,1.6883906766388639459019457045416
309,1.6890433976795184007957148344278
310,1.6896940098397978593395624359648
311,1.6903425267102739726539262916287
312,1.6909889617505964815487151927316
313,1.6916333282911692026309635688632
314,1.6922756395348002114100227545844
315,1.6929159085583255420414649490722
316,1.6935541483142077793489521798958
317,1.6941903716321070817268751772039
318,1.6948245912204299861664926586508
319,1.6954568196678531369653922104220
320,1.6960870694448219393758598769921
321,1.6967153529050280571245660127196
322,1.6973416822868618682322184009176
323,1.6979660697148433931697204440512
324,1.6985885272010306724886895783425
325,1.6992090666464073559046665649660
326,1.6998276998422477400573175257587
327,1.7004444384714620757010126893331
328,1.7010592941099193335180045409852
329,1.7016722782277524034101845763952
330,1.7022834021906421589336311712432
331,1.7028926772610818254494460426231
332,1.7035001145996227132123857582636
333,1.7041057252661016939330230683330
334,1.7047095202208486048158995882702
335,1.7053115103258778949864443685942
336,1.7059117063460605723376701276670
337,1.7065101189502793230224228661616
338,1.7071067587125678624224607172897
339,1.7077016361132305820811865766493
340,1.7082947615399485839198147531502
341,1.7088861452888678152938895997617
342,1.7094757975656718020194870754700
343,1.7100637284866386171372827914881
344,1.7106499480796820791013546229922
345,1.7112344662853789987062176076972
346,1.7118172929579799495266005376050
347,1.7123984378664071272076867545639
348,1.7129779106952361093097530904074
349,1.7135557210456650606108354354239
350,1.7141318784364689261877860616820
351,1.7147063923049406998590604180506
352,1.7152792720078194503340246983085
353,1.7158505268222043894272044108933
354,1.7164201659464563967936708831673
355,1.7169881985010873664495691607425
356,1.7175546335296355848473137583175
357,1.7181194799995303795304257089994
358,1.7186827468029452823560612546955
359,1.7192444427576354524115441185080
360,1.7198045766077682965313364096770
361,1.7203631570247390322711350580755
362,1.7209201926079776749275535221283
363,1.7214756918857420442042857743916
364,1.7220296633159018145076156024149
365,1.7225821152867118452273360016114
366,1.7231330561175736686616850242780
367,1.7236824940597880275865318131792
368,1.7242304372972952511871754339104
369,1.7247768939474081018888081066670
370,1.7253218720615328062509179455030
371,1.7258653796258811232257216248526
372,1.7264074245621724062503348162266
373,1.7269480147283256258799637262097
374,1.7274871579191456614322376196874
375,1.7280248618669945532040677617315
376,1.7285611342424591714680867388208
377,1.7290959826550070914508367597039
378,1.7296294146536338416954797270527
379,1.7301614377275033656026007110365
380,1.7306920593065784529051320959987
381,1.7312212867622440165049992784157
382,1.7317491274079203328328983099539
383,1.7322755884996709203840641612650
384,1.7328006772368000201223159590170
385,1.7333244007624432989982717804073
386,1.7338467661641524352249526684367
387,1.7343677804744693346373684020574
388,1.7348874506714939149244066709228
389,1.7354057836794461324070047363204
390,1.7359227863692194404574889209427
391,1.7364384655589259964877037406530
392,1.7369528280144372258704962124189
393,1.7374658804499172162674109982306
394,1.7379776295283475234454603519185
395,1.7384880818620462454419382599764
396,1.7389972440131810159299243818923
397,1.7395051224942755466780969098225
398,1.7400117237687097272242477996175
399,1.7405170542512118475384303390588
400,1.7410211203083472436183546285853
401,1.7415239282589994149211132114638
402,1.7420254843748443588323288880900
403,1.7425257948808209428967564876091
404,1.7430248659555952078843468911953
405,1.7435227037320160671213375543319
406,1.7440193142975685111048191012956
407,1.7445147036948214341051212136422
408,1.7450088779218675859338742469072
409,1.7455018429327585099385929731810
410,1.7459936046379369816863656085003
411,1.7464841689046612083381448639110
412,1.7469735415574243712868628337971
413,1.7474617283783705911027574080713
414,1.7479487351077037386151650265724
415,1.7484345674440933760771219660280
416,1.7489192310450742580294913686197
417,1.7494027315274422403350667392196
418,1.7498850744676437606031273069608
419,1.7503662654021631684993410548536
420,1.7508463098279028878471886860106
421,1.7513252132025603626879315473143
422,1.7518029809450010688857839346505
423,1.7522796184356254274012060542492
424,1.7527551310167332329414141677571
425,1.7532295239928819773303576316577
426,1.7537028026312426744221485799346
427,1.7541749721619506711697281899137
428,1.7546460377784514585195279004092
429,1.7551160046378453945015130130179
430,1.7555848778612242016024686021879
431,1.7560526625340067420580700464122
432,1.7565193637062712205589249890965
433,1.7569849863930791522488687232606
434,1.7574495355748021939325649953976
435,1.7579130161974396621470760301864
436,1.7583754331729346390669287202280
437,1.7588367913794868275919078507758
438,1.7592970956618611376604922064956
439,1.7597563508316926850714350963295
440,1.7602145616677892740056433300942
441,1.7606717329164285230778761746905
442,1.7611278692916531985428010455811
443,1.7615829754755644023266084451397
444,1.7620370561186072342321811335107
445,1.7624901158398582589520522399940
446,1.7629421592273058022142018259039
447,1.7633931908381302452040796860415
448,1.7638432151989775354389231234956
449,1.7642922368062337545734812824907
450,1.7647402601262928955516442863635
451,1.7651872895958253521720961585203
452,1.7656333296220399623886252300254
453,1.7660783845829453483900632468082
454,1.7665224588276069423799755962604
455,1.7669655566764033219013292763355
456,1.7674076824212771516751925734689
457,1.7678488403259854276325720103373
458,1.7682890346263454190054773745604
459,1.7687282695304788223729707645338
460,1.7691665492190537699743055469143
461,1.7696038778455225419838266202212
462,1.7700402595363581957666548078242
463,1.7704756983912887158552594639121
464,1.7709101984835268455207766600257
465,1.7713437638599995686425157128556
466,1.7717763985415743725404649265981
467,1.7722081065232815722540311139233
468,1.7726388917745377118746938410609
469,1.7730687582393625195961286242196
470,1.7734977098365969409885262292396
471,1.7739257504601165175697579806709
472,1.7743528839790444082506455282558
473,1.7747791142379594045215540894787
474,1.7752044450571064433386191189291
475,1.7756288802325985404283750544016
476,1.7760524235366226577801262050958
477,1.7764750787176398382848882956405
478,1.7768968495005842834724319175050
479,1.7773177395870602636917683379523
480,1.7777377526555372552773717709591
481,1.7781568923615418555366037340392
482,1.7785751623378500443045070252371
483,1.7789925661946751720224721318379
484,1.7794091075198544940532477910196
485,1.7798247898790357280659380990627
486,1.7802396168158582192404043568725
487,1.7806535918521355620288876079189
488,1.7810667184880342749165226947864
489,1.7814790002022517562330484192357
490,1.7818904404521913840143929692472
491,1.7823010426741368940652810097690
492,1.7827108102834246242777805408107
493,1.7831197466746136000799183338513
494,1.7835278552216545549164980230298
495,1.7839351392780560781189758320965
496,1.7843416021770511344435749728391
497,1.7847472472317596406542721533680
498,1.7851520777353510442572809720490
499,1.7855560969612044015592896858916
500,1.785959308163068085369238280293
501,1.786361714575214868200939149833
502,1.786763319412599835971187554548
503,1.787164125871012600131025321167
504,1.787564137127231651874588634428
505,1.787963356339173705694564721443
506,1.788361786646043762171002770925
507,1.788759431168483737816483460260
508,1.789156293008719301728531275045
509,1.789552375250703149727514227947
510,1.789947680960260769000985772598
511,1.790342213185231924113024717960
512,1.790735974955611764353974710532
513,1.791128969283690167947190973964
514,1.791521199164189999353796159801
515,1.791912667574404653753114445367
516,1.792303377474333098865405337273
517,1.792693331806813488687795180563
518,1.793082533497657134359514353474
519,1.793470985455779613932183399050
520,1.793858690573331877880504450662
521,1.794245651725828145413705207125
522,1.794631871772274867621831408078
523,1.795017353555297194445109959494
