Eigenstate,Potential Energy
1,0.500000000014436759845643134025840090
2,0.64623093774535024475812525124867650
3,0.73633760998178493139498178949355332
4,0.79966527839080040038363643037656682
5,0.8480465762844073382580235490293482
6,0.8870659984156876655059370287811199
7,0.9197208262220694825480638252932546
8,0.9477838460801119120975085684604488
9,0.9723835569958730456418163998158876
10,0.9942802131177872185207492844387018
11,1.0140093845868009224169398543274502
12,1.0319621667074773258270896567676119
13,1.0484326895455733130671649316351474
14,1.0636476507841925184492005392221716
15,1.0777854315379650866395136668900454
16,1.090988901223489585802263260231663
17,1.103374251020835392061014011789251
18,1.115037244879740931572408898636250
19,1.126057742623590524593221647536613
20,1.136503037583350327910089624118446
21,1.146430362679265182183115295666324
22,1.155888801579598521069340257452526
23,1.164920766637156871563418249892122
24,1.173563156289711904290475678656743
25,1.181848271855926747596121462466656
26,1.189804551342943682456501693733204
27,1.197457162408959937714832550030725
28,1.204828485722267498503328293455964
29,1.211938512163205020904371913142879
30,1.218805171665982377793071371475146
31,1.225444607351399861566321433424359
32,1.231871405523584485347726710422182
33,1.238098789794218020579051809149010
34,1.244138785847185143096143538661090
35,1.250002362017374994356119194233479
36,1.255699549823890586147000606490783
37,1.261239547793835928766082207222608
38,1.266630811282432019650239715290490
39,1.271881130497364180034359463415125
40,1.276997698539442443758141287818731
41,1.281987170954906428692753008096388
42,1.286855718039713519812055509068791
43,1.291609070929662848064773959017999
44,1.296252562342113533739395858813823
45,1.300791162697486094049325673830157
46,1.305229512235599632099691824299055
47,1.309571949648420812088624359942725
48,1.313822537673214261366863876417320
49,1.317985086025421496099158214648560
50,1.32206317199647275363114343569603
51,1.32606015899626915220423817906215
52,1.32997921328172738437123714877524
53,1.33382331908032903192731224788196
54,1.33759529229005545872178568630077
55,1.34129779291361374520996624136893
56,1.34493333636478455848408710287515
57,1.34850430376752388640755938086106
58,1.35201295135365337818937628203153
59,1.35546141905222008646347064510858
60,1.35885173835258189823817450596902
61,1.36218583951371071457865487661657
62,1.36546555818390443377367644362150
63,1.36869264148785690371920870476923
64,1.37186875363172252933077350329387
65,1.37499548107127738082484950600231
66,1.37807433728343130965672453931475
67,1.38110676717708328757729923637068
68,1.38409415117555602346364315025582
69,1.38703780899953324185199465656428
70,1.38993900317649473883860318336711
71,1.39279894230004562728306874142254
72,1.39561878406023794086963764107868
73,1.39839963806392976017869434544594
74,1.40114256846240817536835940778921
75,1.40384859640187129896334430393990
76,1.40651870231091498549325552998541
77,1.40915382803786751630463989606203
78,1.41175487884964970969106074371902
79,1.41432272530279109649340251119209
80,1.41685820499629467567833069981184
81,1.41936212421519342292629437273916
82,1.42183525947288027470707459628181
83,1.42427835895960457653131033889369
84,1.42669214390390369235035381672668
85,1.42907730985317919590318558413065
86,1.43143452787911119941988854597637
87,1.43376444571314690429130069222231
88,1.43606768881687608057884174693194
89,1.43834486139172268007704672152605
90,1.44059654733203857091206251936206
91,1.44282331112536392960871285935550
92,1.44502569870333052901962902886726
93,1.44720423824642190545432621588429
94,1.44935944094556145960801675578929
95,1.45149180172327839186095331421000
96,1.45360179991699955040269061763212
97,1.45568989992683092852602775655090
98,1.45775655183001967314075028820271
99,1.45980219196413399436809353305212
100,1.46182724348085202566087075598772
101,1.46383211687212137973966358352057
102,1.46581721047032557091444441031629
103,1.46778291092398556074811219446001
104,1.46972959365041741930798936811708
105,1.47165762326667402049447670466933
106,1.47356735400000792569231062735170
107,1.47545913007901452803448716076312
108,1.47733328610653529001451852076877
109,1.47919014741533231364851326225244
110,1.48103003040748306226355433620891
111,1.48285324287837819179028218793755
112,1.48466008432615601580414277841597
113,1.48645084624735159276569043675881
114,1.48822581241948966615397292307196
115,1.48998525917131023968446605436283
116,1.49172945564126723815482452966234
117,1.49345866402490899145491410276444
118,1.49517313981170824817204420126032
119,1.49687313201187571150603020152479
120,1.49855888337366524797370142288141
121,1.50023063059164065213827802382147
122,1.50188860450635493746623072095457
123,1.50353303029586093048225028044706
124,1.50516412765945426558428163229235
125,1.50678211099402031161748857233386
126,1.50838718956334136400843114642286
127,1.50997956766069985837436532003842
128,1.51155944476509077433266230921205
129,1.51312701569134432499725690656654
130,1.51468247073444164578175456049525
131,1.51622599580829079201075939069423
132,1.51775777257921537764015798861892
133,1.51927797859439640580322182105051
134,1.52078678740549656594040044232305
135,1.52228436868767816392829676363922
136,1.52377088835422216409294718358116
137,1.52524650866694251404884892536285
138,1.52671138834257631131469037489972
139,1.52816568265532826475104993119239
140,1.52960954353573245789707879050613
141,1.53104311966598986379326537978716
142,1.53246655657193198761020851857679
143,1.53387999671175236323414452931169
144,1.53528357956164045032287299300930
145,1.53667744169844829058675754334806
146,1.53806171687951241329842901610638
147,1.53943653611974527706888969277432
148,1.54080202776611157689437277581201
149,1.54215831756959121740397552626958
150,1.54350552875473259316098037614784
151,1.54484378208689209024689271740302
152,1.54617319593725010827267496189412
153,1.54749388634569255248490872158096
154,1.54880596708164169518271529547250
155,1.55010954970291464241135003508959
156,1.55140474361268727226844045409192
157,1.55269165611463469139875728133472
158,1.55397039246632002775090880140276
159,1.5552410559308952324013766456483
160,1.5565037478271802279556053056872
161,1.5577585675781788996170537992279
162,1.5590056127580913899955455319792
163,1.5602449791378775509242687972714
164,1.5614767607294261888502800694628
165,1.5627010498283787039861307157022
166,1.5639179370556576387813336809869
167,1.5651275113977473680029969532320
168,1.5663298602457696193090518992786
169,1.5675250694333988863746569671263
170,1.5687132232736574776572745071771
171,1.5698944045946303952311873055588
172,1.5710686947741379103191838577263
173,1.5722361737734012378220737194371
174,1.5733969201697371533298162082620
175,1.5745510111883155375171256751274
176,1.5756985227330095542461484946873
177,1.5768395294163717228834667881742
178,1.5779741045887650391973698107093
179,1.5791023203666755897509246729272
180,1.5802242476602376061594757598342
181,1.5813399561999936077683543101053
182,1.5824495145629173281058295136590
183,1.5835529901977224743547971019985
184,1.5846504494494815613487717654681
185,1.5857419575835766281849104174630
186,1.5868275788090028060428555581578
187,1.5879073763010485376759195236323
188,1.5889814122233678848582535265433
189,1.5900497477494686548446208699448
190,1.5911124430836319968863567580068
191,1.5921695574812826913208205960390
192,1.5932211492688265134021020428054
193,1.5942672758629729756851689975959
194,1.5953079937895567897096231569013
195,1.5963433587018759793047940202335
196,1.5973734253985603373785429731646
197,1.5983982478409846014726870649945
198,1.5994178791702405100258549083305
199,1.6004323717236805731588813379301
200,1.6014417770510474981434360297643
201,1.6024461459302002459322894293324
202,1.6034455283824500948621646890544
203,1.6044399736875173662108808283492
204,1.6054295303981204264698830050827
205,1.6064142463542069316438582980937
206,1.6073941686968403322739220601939
207,1.6083693438817475098095069503136
208,1.6093398176925417657332001509098
209,1.6103056352536269062656995089120
210,1.6112668410427939182495551417842
211,1.6122234789035175951676761714719
212,1.6131755920569633404183355063273
213,1.6141232231137085257340985684569
214,1.6150664140851933804279198027978
215,1.6160052063949006176905568851572
216,1.6169396408892777523894403047593
217,1.6178697578484060694039517283641
218,1.6187955969964252149395747155227
219,1.6197171975117166837493269389590
220,1.6206345980368587103826213261809
221,1.6215478366883504667436461294645
222,1.6224569510661227633168511716094
223,1.6233619782628288148827749459369
224,1.6242629548729301300143398158145
225,1.6251599170015800808878984643407
226,1.6260529002733086913416496749075
227,1.6269419398405172860194882583758
228,1.6278270703917848107912064380482
229,1.6287083261599929765838453979447
230,1.6295857409302749128521216294157
231,1.6304593480477891199418095268671
232,1.6313291804253291292502016851453
233,1.6321952705507638566712256634172
234,1.6330576504943247953742289246106
235,1.6339163519157332189992641197327
236,1.6347714060711770940198726544226
237,1.6356228438201413213827818777277
238,1.6364706956320930384176306187763
239,1.6373149915930274165784136430901
240,1.6381557614118761084147175526082
241,1.6389930344267826251020176718277
242,1.6398268396112475004615020795377
243,1.6406572055801472722221862502008
244,1.6414841605956289687409831014163
245,1.6423077325728844742705772745760
246,1.6431279490858072913214289720547
247,1.6439448373725330818820722060842
248,1.6447584243408715680302028930843
249,1.6455687365736247604283005575811
250,1.6463758003338018988025088310634
251,1.6471796415697290038097732199475
252,1.6479802859200558381861080650647
253,1.6487777587186653487720738326846
254,1.6495720849994852456653535259569
255,1.6503632895012055979227666969088
256,1.6511513966719025305712758928693
257,1.6519364306735744136651548354824
258,1.6527184153865869874408392635166
259,1.6534973744140342264126492766320
260,1.6542733310860153281065058204125
261,1.6550463084638281394814804102578
262,1.6558163293440837457638373884225
263,1.6565834162627410715729778115856
264,1.6573475914990669444897853558862
265,1.6581088770795201455922597698977
266,1.6588672947815616139881119736333
267,1.6596228661373940178735633235805
268,1.6603756124376307251145825878446
269,1.6611255547348984425467716589642
270,1.6618727138473692474152179628488
271,1.6626171103622312941876697921763
272,1.6633587646390921755819327861458
273,1.6640976968133223801986301000340
274,1.6648339267993360550533858976200
275,1.6655674742938129478643397659777
276,1.6662983587788598067235392063320
277,1.6670265995251187204425076101957
278,1.6677522155948141534955289931652
279,1.6684752258447501780054273530196
280,1.6691956489292499956173427378716
281,1.6699135033030456380636701180765
282,1.6706288072241153426681879764369
283,1.6713415787564718152156013754028
284,1.6720518357728985367015422874723
285,1.6727595959576409212031810922627
286,1.6734648768090483495957275585406
287,1.6741676956421721383855210009507
288,1.6748680695913158454154032152581
289,1.6755660156125425604863704624534
290,1.6762615504861399134022611627347
291,1.6769546908190406403575686900037
292,1.6776454530472015935544049818591
293,1.6783338534379450998028655331495
294,1.6790199080922577049987608216672
295,1.6797036329470483916033908634274
296,1.6803850437773738546646154701356
297,1.6810641561986207680835041343888
298,1.6817409856686543578574268401602
299,1.6824155474899300851341983026027
300,1.6830878568115701896597096943584
301,1.6837579286314055050337838756402
302,1.6844257777979846386835767138332
303,1.6850914190125476896600560548393
304,1.6857548668309680817636115635585
305,1.6864161356656639405016817010740
306,1.6870752397874782770748838142890
307,1.6877321933275251613414847316771
308,1.6883870102790093621852240981916
309,1.6890397044990155445483490401425
310,1.6896902897102673582728384796111
311,1.6903387795028600136490306690279
312,1.6909851873359638568002996395194
313,1.6916295265395003376494454184102
314,1.6922718103157921747365196729005
315,1.6929120517411870365275535108611
316,1.6935502637676561148527205449817
317,1.6941864592243651290751821470974
318,1.6948206508192231122321040796378
319,1.6954528511404061207060839934736
320,1.6960830726578558686818326062368
321,1.6967113277247572063186124986718
322,1.6973376285789905560658505193850
323,1.6979619873445628211574616381363
324,1.6985844160330157434207168946287
325,1.6992049265448134723771216279687
326,1.6998235306707075828579844073978
327,1.7004402400930823618865781467221
328,1.7010550663872775540176690060013
329,1.7016680210228935399893071682635
330,1.7022791153650753803488655755956
331,1.7028883606757771626260058156682
332,1.7034957681150077132724492240993
333,1.7041013487420580529023241138133
334,1.7047051135167087788346240327504
335,1.7053070733004216898485938627080
336,1.7059072388575117111817272070079
337,1.7065056208563019919941413474418
338,1.7071022298702632341296307346756
339,1.7076970763791333166582016433734
340,1.7082901707700233075181510486326
341,1.7088815233385055758133780041747
342,1.7094711442896865018929876782747
343,1.7100590437392634229802645168103
344,1.7106452317145658080359124252780
345,1.7112297181555824811672653697075
346,1.7118125129159723683563108635561
347,1.7123936257640623328426376330505
348,1.7129730663838289108631332692624
349,1.7135508443758674926506296886861
350,1.7141269692583464910097606218659
351,1.7147014504679485850516820455546
352,1.7152742973607987214306232560336
353,1.7158455192133781574385558697568
354,1.7164151252234259604125824965403
355,1.7169831245108283287171272162664
356,1.7175495261184939440682333694317
357,1.7181143390132185942231890733273
358,1.7186775720865383100216954770106
359,1.7192392341555667619025373628145
360,1.7197993339638258538004379113408
361,1.7203578801820612592777539558183
362,1.7209148814090493814770598877102
363,1.7214703461723903324940205206592
364,1.7220242829292919561508455334327
365,1.7225767000673431305242693713583
366,1.7231276059052752278849224872490
367,1.7236770086937146240455718070412
368,1.7242249166159230458349533436165
369,1.7247713377885303892305874824809
370,1.7253162802622557213138861365556
371,1.7258597520226193193451689359038
372,1.7264017609906447034262986241155
373,1.7269423150235506294554351551850
374,1.7274814219154373508421213212216
375,1.7280190893979578405415116721828
376,1.7285553251409854296125172784855
377,1.7290901367532696514992658546434
378,1.7296235317830834594368174850721
379,1.7301555177188636567715492364887
380,1.7306861019898412969503624653357
381,1.7312152919666649286032086960282
382,1.7317430949620138038782441677261
383,1.7322695182312057246796194182347
384,1.7327945689727944904977398865955
385,1.7333182543291605690750108623619
386,1.7338405813870956485479224749408
387,1.7343615571783768203892494895389
388,1.7348811886803343299356492756725
389,1.7353994828164135691724861035436
390,1.7359164464567285008673361842055
391,1.7364320864186068309775654460161
392,1.7369464094671305376931758150405
393,1.7374594223156692305850662383778
394,1.7379711316264049209390164856001
395,1.7384815440108510601306730822636
396,1.7389906660303654968920560824324
397,1.7394985041966569833594103004448
398,1.7400050649722852380192118409571
399,1.7405103547711531313251355321359
400,1.7410143799589952939253050097974
401,1.7415171468538591964008680304364
402,1.7420186617265794457137204480495
403,1.7425189308012481190843306992577
404,1.7430179602556790283703571629563
405,1.7435157562218633803721570748133
406,1.7440123247864229420806313496066
407,1.7445076719910578275679092701772
408,1.7450018038329864096957901943643
409,1.7454947262653802176992450081547
410,1.7459864451977963351036523169562
411,1.7464769664966015579742569167763
412,1.7469662959853918960673408980576
413,1.7474544394454084959227034158931
414,1.7479414026159464097233587524796
415,1.7484271911947604938646985609696
416,1.7489118108384648668465476535606
417,1.7493952671629287749546602468265
418,1.7498775657436660289479053429088
419,1.7503587121162222902428970550285
420,1.7508387117765551884976095982981
421,1.7513175701814112227576133152865
422,1.7517952927486987277471231346388
423,1.7522718848578547414243963318704
424,1.7527473518502093875054823155203
425,1.7532216990293441522955487279969
426,1.7536949316614476626466368283196
427,1.7541670549756664496500383536836
428,1.7546380741644507117295110769643
429,1.7551079943838989895003119584768
430,1.7555768207540946144777024288163
431,1.7560445583594414352659532901183
432,1.7565112122489959707185352940135
433,1.7569767874367913279432351022460
434,1.7574412889021639830647201818762
435,1.7579047215900712483943888302144
436,1.7583670904114073269726739763173
437,1.7588284002433161158280045614782
438,1.7592886559294997399903112825753
439,1.7597478622805234985375382078958
440,1.7602060240741182938612894968468
441,1.7606631460554777039771920648129
442,1.7611192329375532614984371305074
443,1.7615742894013475869396895112763
444,1.7620283200961999956932210577044
445,1.7624813296400739093070232426648
446,1.7629333226198370953840423875487
447,1.7633843035915419052411372065785
448,1.7638342770806987274980433940491
449,1.7642832475825504980699829527693
450,1.7647312195623404189732592851708
451,1.7651781974555803890057691912502
452,1.7656241856683129876179330289225
453,1.7660691885773727550127401452832
454,1.7665132105306431573899110842203
455,1.7669562558473128611725848624683
456,1.7673983288181266131806590974260
457,1.7678394337056354224230050951367
458,1.7682795747444424393691953905186
459,1.7687187561414470465896530256172
460,1.7691569820760868030708088176371
461,1.7695942567005750918930855979712
462,1.7700305841401376842846255230858
463,1.7704659684932468237840901716638
464,1.7709004138318509913801399520878
465,1.7713339242016043203243232660085
466,1.7717665036220927912752643736893
467,1.7721981560870564882508005238449
468,1.7726288855646129309887955774299
469,1.7730586959974739603731498677705
470,1.7734875913031637014249586353356
471,1.7739155753742318709238762506555
472,1.7743426520784667272300200033542
473,1.7747688252591030131662152390674
474,1.7751940987350323959114939789933
475,1.7756184763010053266173873215405
476,1.7760419617278368335079784992665
477,1.7764645587626065814159709108893
478,1.7768862711288578736974083368102
479,1.7773071025267944858633035196913
480,1.7777270566334757254621798891987
481,1.7781461371030082690407696033187
482,1.7785643475667383449212764635112
483,1.7789816916334396417428572932420
484,1.7793981728894997624721012635650
485,1.7798137948991067007068430270440
486,1.7802285612044299240148380220823
487,1.7806424753258029130362510214183
488,1.7810555407619017527820068229222
489,1.7814677609899230041730104273873
490,1.7818791394657587188081109267656
491,1.7822896796241707311040284749477
492,1.7826993848789628158524769897496
493,1.7831082586231506860588614599783
494,1.7835163042291309249558940462173
495,1.7839235250488470445387653614058
496,1.7843299244139559148916761006725
497,1.7847355056359902496719965814007
498,1.7851402720065210928493575662336
499,1.7855442267973178038611146520242
500,1.785947373260507671494234857749
501,1.786349714628730902340084994971
502,1.786751254115298438806748451445
503,1.787151994914344074615071458211
504,1.787551940200978711413081336638
505,1.787951093131439603765915961188
506,1.788349456843240322397457350855
507,1.788747034455319283495469552812
508,1.789143829068186483819408215663
509,1.789539843764066672277621784107
510,1.789935081607045010983841423818
511,1.790329545643208456638868304171
512,1.790723238900786762201501476738
513,1.791116164390291714352673430222
514,1.791508325104655282981995626369
515,1.791899724019367056761214036809
516,1.792290364092609174959799368557
517,1.792680248265389830059133316524
518,1.793069379461677126369784273400
519,1.793457760588530076413928442502
520,1.793845394536229591894914259449
521,1.794232284178406264301083002114
522,1.794618432372169211163676557118
523,1.795003841958232424944715239355
