Eigenstate,Potential Energy
1,0.500000000036841063887991633901627920
2,0.64623093789159385016353808438529690
3,0.73633761041136365045963066297699496
4,0.79966527928556361751784828087429965
5,0.8480465778343198824917782930250169
6,0.8870660008140386889626469510039558
7,0.9197208296637067879947871467341493
8,0.9477838507607052545028739845827603
9,0.9723835631115712543237278052373041
10,0.9942802208650438836902978868540995
11,1.0140093941622794340058239009590041
12,1.0319621783079963489062241792009062
13,1.0484327033680742769735605218679219
14,1.0636476670257197747173003695956978
15,1.0777854503956537096690622243750461
16,1.090988922894557974211796315496170
17,1.103374275702580992730716681667403
18,1.115037272769538057754145719252455
19,1.126057773918889616453016094956007
20,1.136503072481678230540267533342026
21,1.146430401378226156717211522629438
22,1.155888844276875794190415701567417
23,1.164920813530514587309554248699048
24,1.173563207576997381246941027903002
25,1.181848327735072971297842458166703
26,1.189804612011971981402828787788877
27,1.197457228065982804528317634995178
28,1.204828556565491527187350223773323
29,1.211938588390933938013832225048707
30,1.218805253476620150391161408378490
31,1.225444694943453868616536448908634
32,1.231871499095668742040772264143264
33,1.238098889545056447268509524801205
34,1.244138891975614872191323764826128
35,1.250002474722349709821988257149086
36,1.255699669304483891281148145835106
37,1.261239674249244738728662051226102
38,1.266630944911979975864324994732345
39,1.271881271500505084088390201932850
40,1.276997847115763708857142601023496
41,1.281987327304132547041926774903130
42,1.286855882361709544591620979090689
43,1.291609243424437888881039215943129
44,1.296252743209824264623761829918592
45,1.300791352138440273231928749198995
46,1.305229710450259632913698857018838
47,1.309572156837407164469510695946315
48,1.313822754037309203502227811425379
49,1.317985311765572535861689646000277
50,1.32206340731379623949278270006594
51,1.32606040409205385338534393496651
52,1.32997946835743808002624006584674
53,1.33382358433761010920925387648977
54,1.33759556793073451960344157938292
55,1.34129807913970522196971361928718
56,1.34493363337849333779113776696954
57,1.34850461177124894196414558618664
58,1.35201327054999141190766418401857
59,1.35546174964396917817246500020255
60,1.35885208054274516393140522847365
61,1.36218619350549997322701354005888
62,1.36546592418074388273987208601320
63,1.36869301969338680282093623381885
64,1.37186914424980289360918055006754
65,1.37499588430599168208339696944681
66,1.37807475333909018684308291798273
67,1.38110719625822826608771986865191
68,1.38409459348696324345535747107436
69,1.38703826474621719565479484674677
70,1.38993947256371201756159938039752
71,1.39279942553329867671737666932411
72,1.39561928134527882679169762472435
73,1.39840014960676394316285680254037
74,1.40114309446929829522076738160941
75,1.40384913707934096889240388511920
76,1.40651925786575259613488038213602
77,1.40915439867713004972323827606144
78,1.41175546478066656347977152077468
79,1.41432332673316791809949576100688
80,1.41685882213391720708182944178257
81,1.41936275726823135580206284166665
82,1.42183590864979111620254784257407
83,1.42427902446913752579389677872326
84,1.42669282595510352794032706413135
85,1.42907800865539017422959240712442
86,1.43143524364198096433854564499592
87,1.43376517864663040800558845528218
88,1.43606843913123951598543235878768
89,1.43834562929754742470013700005936
90,1.44059733304022514257108894242275
91,1.44282411484713595396588176778518
92,1.44502652065023871915487061604102
93,1.44720507863034805361659748907723
94,1.44936029997872244129308669350195
95,1.45149267961823018236709031210806
96,1.45360269688664125401677178849722
97,1.45569081618440882049393107756913
98,1.45775748758913125457686352932461
99,1.45980314743873206026013095675539
100,1.46182821888524874612716020831285
101,1.46383311242099239469732363604777
102,1.46581822637871409831793766129213
103,1.46778394740730651855874098471306
104,1.46973065092446156135617099663789
105,1.47165870154761208639755778095979
106,1.47356845350439480499192023542812
107,1.47546025102379343871849703984044
108,1.47733442870904197158975362253046
109,1.47919131189329923493156524602921
110,1.48103121697904364405805321121748
111,1.48285445176207104462017010081059
112,1.48466131574092919287361157504802
113,1.48645210041256685831752346170446
114,1.48822708955492677939920883018754
115,1.48998655949717125447744577018320
116,1.49173077937818081858878509745320
117,1.49346001139393474355445997683039
118,1.49517451103434106786004204316880
119,1.49687452731005014902351096344672
120,1.49856030296975988893270734320415
121,1.50023207470848251538861023175337
122,1.50189007336722388995833686168951
123,1.50353452412449411930971760478684
124,1.50516564668005056739052013251122
125,1.50678365543124479955249649840840
126,1.50838875964232979242277799682690
127,1.50998116360706316543868391277893
128,1.51156106680491960277233648220286
129,1.51312866405121356113315666998458
130,1.51468414564141497706919184403823
131,1.51622769748992528327007460742763
132,1.51775950126356606617389829374081
133,1.51927973451002091559578261587694
134,1.52078857078145974113770031588530
135,1.52228617975355672179631001618279
136,1.52377272734010936765511852014208
137,1.52524837580345286460404734010331
138,1.52671328386085026103852076596618
139,1.52816760678703694958495601135397
140,1.52961149651308245093094777534818
141,1.53104510172172794934867817364642
142,1.53246856793934995623307022632333
143,1.53388203762469182780671414142905
144,1.53528565025449768350690093744771
145,1.53667954240617908381072888336161
146,1.53806384783763695750356483146823
147,1.53943869756435306543010115641574
148,1.54080421993386632973375786875151
149,1.54216054069773582951624596755787
150,1.54350778308109410377152462555913
151,1.54484606784988667582507376965783
152,1.54617551337588809842429618286514
153,1.54749623569958346914968229642773
154,1.54880834859099931536394333145807
155,1.55011196360856208466691069300287
156,1.55140719015606210719389796711369
157,1.55269413553779407633484996149997
158,1.55397290501194586594968066405821
159,1.5552436018422993568868350356726
160,1.5565063273483096103165396778824
161,1.5577611809536208839715045658292
162,1.5590082602330789523682453438169
163,1.5602476609582945842799807975231
164,1.5614794771418128140280730127916
165,1.5627038010799366067814737352241
166,1.5639207233942554334245016461260
167,1.5651303330719259872844720943330
168,1.5663327175047477316045452544531
169,1.5675279625270783398239785577889
170,1.5687161524526287717537767111989
171,1.5698973701101781800800019314817
172,1.5710716968782465138248564394600
173,1.5722392127187602210679324822491
174,1.5733999962097468944137621767752
175,1.5745541245770928441104001144655
176,1.5757016737253933051438737652977
177,1.5768427182679285388177794196462
178,1.5779773315557949831861871092610
179,1.5791055857062178972575587293249
180,1.5802275516300764453404907595595
181,1.5813432990586638700892740713024
182,1.5824528965697104496066088101539
183,1.5835564116126922878491792535308
184,1.5846539105334501798439613124226
185,1.5857454585981403598105065530555
186,1.5868311200165381007798786694652
187,1.5879109579647179661797464404647
188,1.5889850346071261496711524286409
189,1.5900534111180686342963470937325
190,1.5911161477026308219835854851278
191,1.5921733036170478559286911467011
192,1.5932249371885420180236811663651
193,1.5942711058346455051471815917614
194,1.5953118660820219250653756436073
195,1.5963472735848044442677203483896
196,1.5973773831424642796026190403289
197,1.5984022487172239089984152047868
198,1.5994219234510291632133011734766
199,1.6004364596820930324320224714705
200,1.6014459089610251278727158296323
201,1.6024503220665577747849535508449
202,1.6034497490208821129531719640379
203,1.6044442391046048593894959877070
204,1.6054338408713373480803416704467
205,1.6064186021619268121010433622303
206,1.6073985701183429267982912886829
207,1.6083737911972254846681962384798
208,1.6093443111831074233373183927808
209,1.6103101752013189494769534629801
210,1.6112714277305842542522576020221
211,1.6122281126153181792653713115432
212,1.6131802730776330601173515985725
213,1.6141279517290601254796958701039
214,1.6150711905820004273616153996732
215,1.6160100310609045088006811711689
216,1.6169445140131947634301783813714
217,1.6178746797199344459614663490257
218,1.6188005679062523060269846862928
219,1.6197222177515261183160660752963
220,1.6206396678993376171267551767748
221,1.6215529564671967376194367568475
222,1.6224621210560523611332593219906
223,1.6233671987595831253921249097730
224,1.6242682261732833588939856982119
225,1.6251652394033466960214370673755
226,1.6260582740753509108097473187010
227,1.6269473653427526122141159799208
228,1.6278325478951936110709604942656
229,1.6287138559666261108916254431634
230,1.6295913233432614087205098510537
231,1.6304649833713438953151024234386
232,1.6313348689647607635561787348388
233,1.6322010126124824105796241976966
234,1.6330634463858496796828726619399
235,1.6339222019457011130929016920836
236,1.6347773105493499143509052850355
237,1.6356288030574142404271064020980
238,1.6364767099405025545631798026390
239,1.6373210612857594754078306908917
240,1.6381618868032742758486696328363
241,1.6389992158323563128731703494620
242,1.6398330773476802443938062095053
243,1.6406634999653050637950658311876
244,1.6414905119485686404217067224565
245,1.6423141412138621391032049368265
246,1.6431344153362868372652335109356
247,1.6439513615551947213967664862789
248,1.6447650067796204434101579861235
249,1.6455753775935996053926263018949
250,1.6463825002613837568527845281925
251,1.6471864007325500038721253950971
252,1.6479871046470080280588852727165
253,1.6487846373399095869057461900730
254,1.6495790238464601518061478841988
255,1.6503702889066365631565663211513
256,1.6511584569698107873097199270307
257,1.6519435521992861661207335472865
258,1.6527255984767426031432560921471
259,1.6535046194065974893239694960774
260,1.6542806383202827538981603601122
261,1.6550536782804383535414883950282
262,1.6558237620850269245081286024856
263,1.6565909122713684476404530936676
264,1.6573551511201003764061238378913
265,1.6581165006590617524935104108787
266,1.6588749826671034760005531446272
267,1.6596306186778279427525049391653
268,1.6603834299832580817503859521990
269,1.6611334376374400619526254716334
270,1.6618806624599753918169674174800
271,1.6626251250394916948424328541160
272,1.6633668457370461399583263165442
273,1.6641058446894689691575121591831
274,1.6648421418126443306746205686273
275,1.6655757568047322925712201855638
276,1.6663067091493303143636255144467
277,1.6670350181185816599893094602648
278,1.6677607027762225060428359828417
279,1.6684837819805792477324192411674
280,1.6692042743875080954096239783777
281,1.6699221984532848504822859416907
282,1.6706375724374423569654605573959
283,1.6713504144055588411037475653525
284,1.6720607422319942955872025478193
285,1.6727685736025817156085183480013
286,1.6734739260172692114933024567268
287,1.6741768167927180571822390242367
288,1.6748772630648530763281979834962
289,1.6755752817913700140595394952263
290,1.6762708897542006269243775353605
291,1.6769641035619333319434057009060
292,1.6776549396521922996654135934075
293,1.6783434142939788969872959227260
294,1.6790295435899705166413457530625
295,1.6797133434787788804814712269926
296,1.6803948297371754021168972244333
297,1.6810740179822735406054835026561
298,1.6817509236736774619458977945287
299,1.6824255621155938112119946838020
300,1.6830979484589083459203782370361
301,1.6837680977032278420548477057276
302,1.6844360246988893656654005258192
303,1.6851017441489340831569705478986
304,1.6857652706110491877822452289447
305,1.6864266184994793708515011250900
306,1.6870858020869071008643824705721
307,1.6877428355062988925236331219650
308,1.6883977327527250440647017662125
309,1.6890505076851489321732804450794
310,1.6897011740281861996428934140670
311,1.6903497453738374306820318247492
312,1.6909962351831918270097835795416
313,1.6916406567881032774949537261995
314,1.6922830233928406256192601090520
315,1.6929233480757114544142687306483
316,1.6935616437906607645211112999643
317,1.6941979233688420839849400288208
318,1.6948321995201663610362215148883
319,1.6954644848348257814282847554260
320,1.6960947917847925115966490748621
321,1.6967231327252962865820273133130
322,1.6973495198962769571560261366398
323,1.6979739654238155101957771172808
324,1.6985964813215425394558293525607
325,1.6992170794920259287258104986623
326,1.6998357717281359846089959995443
327,1.7004525697143908396851769207387
328,1.7010674850282793152613875178409
329,1.7016805291415662185772234446225
330,1.7022917134215765061397263159683
331,1.7029010491324597517727282285245
332,1.7035085474364359806137682424395
333,1.7041142193950232476049277017078
334,1.7047180759702451444929373695342
335,1.7053201280258225502618904433108
336,1.7059203863283456830422562931716
337,1.7065188615484293257337219137514
338,1.7071155642618522841858502214210
339,1.7077105049506771424348374138414
340,1.7083036940043564063296640217294
341,1.7088951417208207491171093911528
342,1.7094848583075518561273133672964
343,1.7100728538826395063417486315547
344,1.7106591384758228845436219570944
345,1.7112437220295179433773052511591
346,1.7118266143998282901051068442125
347,1.7124078253575431634131677410710
348,1.7129873645891193119838083866147
349,1.7135652416976503197524981250790
350,1.7141414662038209201843019216290
351,1.7147160475468483871672423395286
352,1.7152889950854106848822514705787
353,1.7158603180985606610232425745456
354,1.7164300257866276978386146512773
355,1.7169981272721071862731741223227
356,1.7175646316005360329960030485955
357,1.7181295477413574393546052428198
358,1.7186928845887741962596311388296
359,1.7192546509625862401424449588386
360,1.7198148556090214079087890335720
361,1.7203735072015511357611607789145
362,1.7209306143416975834957462647603
363,1.7214861855598267798920298514340
364,1.7220402293159328131943669422101
365,1.7225927540004113030603235677006
366,1.7231437679348210316512832121904
367,1.7236932793726366258838672389783
368,1.7242412964999890795791522200618
369,1.7247878274363987480635968398383
370,1.7253328802354965284062225586870
371,1.7258764628857360786111376791745
372,1.7264185833110960322543586643122
373,1.7269592493717721752917526729122
374,1.7274984688648638935280024146924
375,1.7280362495250455823284185617495
376,1.7285725990252344748005728057169
377,1.7291075249772466776693559819047
378,1.7296410349324445822683909196613
379,1.7301731363823774904630516190275
380,1.7307038367594122122826133105779
381,1.7312331434373565107115240998130
382,1.7317610637320725118220227450703
383,1.7322876049020847549253952234511
384,1.7328127741491778464549017242581
385,1.7333365786189873388514477012690
386,1.7338590254015844931166903782304
387,1.7343801215320506743858215684028
388,1.7348998739910453173309689891968
389,1.7354182897053681360946341738408
390,1.7359353755485127678725054614588
391,1.7364511383412121670984562594648
392,1.7369655848519793586218465656533
393,1.7374787217976410233760923862121
394,1.7379905558438624976473974574530
395,1.7385010936056670428292518496378
396,1.7390103416479490365426389944428
397,1.7395183064859807150428560409873
398,1.7400249945859124750599994182831
399,1.7405304123652653008775994403335
400,1.7410345661934196166205783248418
401,1.7415374623920966126853010362289
402,1.7420391072358327915429208289417
403,1.7425395069524505536692530493033
404,1.7430386677235227167063738208775
405,1.7435365956848284333151899128704
406,1.7440332969268066167699213852664
407,1.7445287774950039910295630920279
408,1.7450230433905152684966295711321
409,1.7455161005704183165569777461771
410,1.7460079549482068273958412340143
411,1.7464986123942147511258987637479
412,1.7469880787360360748340012972196
413,1.7474763597589410266246758960212
414,1.7479634612062851285256557100293
415,1.7484493887799153822358469491793
416,1.7489341481405700173701190675759
417,1.7494177449082746507072600386611
418,1.7499001846627320196989316397905
419,1.7503814729437095687728744700717
420,1.7508616152514198703739733106506
421,1.7513406170468978329502281788919
422,1.7518184837523739775088326839409
423,1.7522952207516416189065381500381
424,1.7527708333904215656229822353082
425,1.7532453269767207174017014036594
426,1.7537187067811881676237917552430
427,1.7541909780374662950695282216429
428,1.7546621459425368587815045748340
429,1.7551322156570660084429607362187
430,1.7556011923057410724032285160111
431,1.7560690809776066270316434577317
432,1.7565358867263969969411397145694
433,1.7570016145708605240063047438625
434,1.7574662694950867031401816437912
435,1.7579298564488240085330719906670
436,1.7583923803477963113718513291392
437,1.7588538460740160504378049987655
438,1.7593142584760931376778869221437
439,1.7597736223695402800811302783469
440,1.7602319425370757891060788282826
441,1.7606892237289210375410234016728
442,1.7611454706630961274751690881304
443,1.7616006880257134171057972408534
444,1.7620548804712635257860368931519
445,1.7625080526229031480034471271135
446,1.7629602090727357006697100861389
447,1.7634113543820919729257039832609
448,1.7638614930818039966950862889274
449,1.7643106296724799785255576710612
450,1.7647587686247724451935255244018
451,1.7652059143796471062016441841207
452,1.7656520713486452745535661459887
453,1.7660972439141455889128352051981
454,1.7665414364296214261329845048918
455,1.7669846532198976280677185140564
456,1.7674268985814018396995633491689
457,1.7678681767824151543308998711636
458,1.7683084920633184617758901582345
459,1.7687478486368370135160951243811
460,1.7691862506882828472056917981769
461,1.7696237023757929202920450901079
462,1.7700602078305661658447705690395
463,1.7704957711570980744072293086772
464,1.7709303964334109628221611092599
465,1.7713640877112838988106248026465
466,1.7717968490164794120478943369647
467,1.7722286843489662723002479322024
468,1.7726595976831433503099728726233
469,1.7730895929680570381767741626384
470,1.7735186741276197538234029486628
471,1.7739468450608237967054652216967
472,1.7743741096419548524292078267265
473,1.7748004717208004972306565537497
474,1.7752259351228612063667290695580
475,1.7756505036495527892259641760886
476,1.7760741810784127650213724318241
477,1.7764969711633010121191387440582
478,1.7769188776345993670494155340453
479,1.7773399041994090626414623404942
480,1.7777600545417463999259380830531
481,1.7781793323227352047388802378848
482,1.7785977411807996378764615400933
483,1.7790152847318527388615266907956
484,1.7794319665694835231386871099932
485,1.7798477902651441096413918750941
486,1.7802627593683314635868117300354
487,1.7806768774067706033514575120042
488,1.7810901478865938679783461901781
489,1.7815025742925194734865172221783
490,1.7819141600880272210964660606410
491,1.7823249087155334916428974193381
492,1.7827348235965641143508462582928
493,1.7831439081319250849715915536955
494,1.7835521657018722273072915432152
495,1.7839595996662779906074279484261
496,1.7843662133647986272476949782998
497,1.7847720101170374361979798655720
498,1.7851769932227080175224374203669
499,1.7855811659617950352189641458135
500,1.785984531594714618858321957151
501,1.786387093362470150021132105141
502,1.786788854486810888670964906905
503,1.787189818170384907549350981094
504,1.787589987596894178384777847938
505,1.787989365931244657337205600914
506,1.788387956319697099719481227466
507,1.788785761890016451975835806886
508,1.789182785751619460828638152394
509,1.789579030995718730434236820035
510,1.789974500695469280735116547419
511,1.790369197906110838035702955863
512,1.790763125665109757949199556207
513,1.791156286992299196407298624966
514,1.791548684890018205150753773240
515,1.791940322343250125961947380206
516,1.792331202319758493989068245749
517,1.792721327770221524922326834354
518,1.793110701628366971427986079955
519,1.793499326811104130812713087743
520,1.793887206218655860951637358086
521,1.794274342734687399742131085725
522,1.794660739226436264324390944496
523,1.795046398544839667265941496879
