Eigenstate,Potential Energy
1,0.500000000013975432555925838549573987
2,0.64623093774233894570965197717962155
3,0.73633760997293950660767898015228088
4,0.79966527837237645671620048220296458
5,0.8480465762524934436288632843194043
6,0.8870659983663040257501323340719981
7,0.9197208261512043212358781593699037
8,0.9477838459837366627562793580555572
9,0.9723835568699494348316119168467952
10,0.9942802129582708780156183484110619
11,1.0140093843896433674588973389983255
12,1.0319621664686271007663492500285539
13,1.0484326892609766837348578470595363
14,1.0636476504497939036843257722951233
15,1.0777854311497073324628568635066880
16,1.090988900777314140759034254647440
17,1.103374250512682418284982630517411
18,1.115037244305549372753116361439662
19,1.126057741979298144265339692661014
20,1.136503036864893726816631133889289
21,1.146430361882579800569216127862815
22,1.155888800700618629917213639663143
23,1.164920765671815555572196221210528
24,1.173563155233941038597792831426681
25,1.181848270705656969687824059871015
26,1.189804550094104360328327409364535
27,1.197457161057479135079560999240020
28,1.204828484264071937642877156878794
29,1.211938510594220043625079369815845
30,1.218805169982131904838245501602108
31,1.225444605548606350762388090430771
32,1.231871403597768888701618344734996
33,1.238098787741299740499715726138753
34,1.244138783663081987878571606884891
35,1.250002359698003133039508161453890
36,1.255699547365164502837651630547629
37,1.261239545191668376499058172022801
38,1.266630808532733973850593586330650
39,1.271881127596044791628163392055715
40,1.276997695482408991975005528118358
41,1.281987167738064273594590667933842
42,1.286855714658966054577187023657709
43,1.291609067380911451051811634147473
44,1.296252558621257520351512241897065
45,1.300791158800422668416321143376369
46,1.305229508158223838592619788562346
47,1.309571945386625486679506792921553
48,1.313822533222889982844157392300944
49,1.317985081382456537148050613846198
50,1.32206316715675303178641569954572
51,1.32606015395567818068228867408747
52,1.32997920803614622278688529423328
53,1.33382331362563623690016489876989
54,1.33759528662212703437622541068364
55,1.34129778702832309357220408766638
56,1.34493333025800242977917890527803
57,1.34850429743511832925882214986871
58,1.35201294479148968972222978636546
59,1.35546141225616076231537649424352
60,1.35885173131848658247603201073031
61,1.36218583223743614952473902867921
62,1.36546555066130440974096469256275
63,1.36869263371478220865672658095158
64,1.37186874560402089837940635949466
65,1.37499547278479344578389372767719
66,1.37807432873400654836130953940984
67,1.38110675836055597318667549892024
68,1.38409414208776117366021502240514
69,1.38703779963630256795086823014720
70,1.38993899353365659480732938501987
71,1.39279893237342495867117148222833
72,1.39561877384565623364744158410643
73,1.39839962755720498948489772664067
74,1.40114255765935475416573494462285
75,1.40384858529830002660189218581172
76,1.40651869090263299618008189436970
77,1.40915381632067822747978728186145
78,1.41175486681935277030847000822921
79,1.41432271295518233520615297384287
80,1.41685819232716604892726138201689
81,1.41936211122033296293108241396233
82,1.42183524614807203735881216189558
83,1.42427834530062858918558896277929
84,1.42669212990653590151984993376869
85,1.42907729551319141484870791446726
86,1.43143451319227105563882876384193
87,1.43376443067521778690240115241774
88,1.43606767342361708760218595031085
89,1.43834484563888856560814671791629
90,1.44059653121537969218891043454863
91,1.44282329464062619397064118421276
92,1.44502568184625534075680942471699
93,1.44720422101274611254672603195153
94,1.44935942333101730035261242248176
95,1.45149178372359344138598440075279
96,1.45360178152789666706774408659339
97,1.45568988114402820020670307658740
98,1.45775653264923036339666445887699
99,1.45980217238106648849296400940808
100,1.46182722349120977661340761805390
101,1.46383209647160285395399131453452
102,1.46581718965462419398876010159420
103,1.46778288968878966301028580727489
104,1.46972957199141018125678898422202
105,1.47165760117953341811510245276946
106,1.47356733148040667564491540551512
107,1.47545910712262003271433884658501
108,1.47733326270900958248246175985435
109,1.47919012357233200243038256240583
110,1.48103000611465927601716422488556
111,1.48285321813137652383863392605492
112,1.48466005912061646853346699144444
113,1.48645082057890852188693631643879
114,1.48822578628377172482635157042388
115,1.48998523256394032249964975874752
116,1.49172942855786242498038289776767
117,1.49345863646108049113557662038377
118,1.49517311176306134208736367693687
119,1.49687310347400969698301234927962
120,1.49855885434217338155295689820687
121,1.50023060106211009269225470864612
122,1.50188857447436668916807109619371
123,1.50353299975698978562380116515456
124,1.50516409660926874724179831214318
125,1.50678207942808261616354643102984
126,1.50838715747720730346856341717948
127,1.50997953504991880262693397387510
128,1.51155941162520559315045723026891
129,1.51312698201789132992931579771819
130,1.51468243652295053187389566078027
131,1.51622596105428457936329404113674
132,1.51775773727821035280125458316090
133,1.51927794274190206299638616202171
134,1.52078675099701554812452242594630
135,1.52228433171870620368870883297669
136,1.52377085082024802436193466183230
137,1.52524647056344792865404427809374
138,1.52671134966503592535376840543939
139,1.52816564339920957479114231673230
140,1.52960950369649575199731396915236
141,1.53104307923908816134883201790254
142,1.53246651555281097901633348580532
143,1.53387995509585034936836928982932
144,1.53528353734438828184399762446321
145,1.53667739887526930704882358736766
146,1.53806167344582238207810035791519
147,1.53943649207095233210457153763552
148,1.54080198309761615723542215954519
149,1.54215827227678600556832479206570
150,1.54350548283300245329950837127024
151,1.54484373553161400611284966792590
152,1.54617314874379312099447245241943
153,1.54749383850941769814057571530684
154,1.54880591859790194217430154394904
155,1.55010950056705482863756397207152
156,1.55140469382004404209379286196648
157,1.55269160566053643241746909755850
158,1.55397034134608680734383964417551
159,1.5552410041398387340842182349402
160,1.5565036953606036875165711575121
161,1.5577585144313770410423000225535
162,1.5590055589263503611805235839140
163,1.5602449246164748591692299105766
164,1.5614767055136306361381316126024
165,1.5627009939134503220408150043038
166,1.5639178804368476239049237014711
167,1.5651274540702980156896627902324
168,1.5663298022049142586340741047125
169,1.5675250106743618141566201324756
170,1.5687131637916538923915842949845
171,1.5698943443848663307930333050262
172,1.5710686338318101694340823572656
173,1.5722361120936973253020701685914
174,1.5733968577478352090734760790336
175,1.5745509480193842692713734748682
176,1.5756984588122081701280470564478
177,1.5768394647388498636599958611305
178,1.5779740391496627103212551306444
179,1.5791022541611230931505717202332
180,1.5802241806833554717810254153137
181,1.5813398884468925248678974448523
182,1.5824494460286980762897753886248
183,1.5835529208774758543664103155494
184,1.5846503793382883255988491683715
185,1.5857418866765074110245917635120
186,1.5868275071011180537765059865521
187,1.5879073037873984383120683137336
188,1.5889813388989922975965106529725
189,1.5900496736093970392964987063197
190,1.5911123681228833420279249897049
191,1.5921694816948654441750912029708
192,1.5932210726517385074490464890297
193,1.5942671984102013589972279190554
194,1.5953079154960779528105997747188
195,1.5963432795626554827499745573755
196,1.5973733454085528390538901803772
197,1.5983981669951337836109310670912
198,1.5994177974634790059373074018441
199,1.6004322891509298936747674855919
200,1.6014416936072179577695462415107
201,1.6024460616101908887107217913863
202,1.6034454431811486199389219786924
203,1.6044398875998000531070753464026
204,1.6054294434188520600542877973087
205,1.6064141584782407268045279139729
206,1.6073940799190178582865816947768
207,1.6083692541968986144004307879937
208,1.6093397270954844988342390439383
209,1.6103055437391674434591341578213
210,1.6112667486057264839004226134865
211,1.6122233855386243852412205266319
212,1.6131754977590144449801940325747
213,1.6141231278774618511308402412404
214,1.6150663179053945711455316683480
215,1.6160051092662829778884580331788
216,1.6169395428065621671075796383393
217,1.6178696588063009254405505841437
218,1.6187954969896263213970462048797
219,1.6197170965349071922458863147337
220,1.6206344960847090349271038835319
221,1.6215477337555182032709888817221
222,1.6224568471472526088817449310857
223,1.6233618733525524865089328583984
224,1.6242628489658662831968059941039
225,1.6251598100923342277458376631818
226,1.6260527923564731184190193133286
227,1.6269418309106709717309819036546
228,1.6278269604434933425108353559934
229,1.6287082151878084673735286023725
230,1.6295856289287359178276106454175
231,1.6304592350114205522732914895780
232,1.6313290663486421757948407790107
233,1.6321951554282558932349927474721
234,1.6330575343204793016002282680499
235,1.6339162346850196928798535054433
236,1.6347712877780509660298012883673
237,1.6356227244590438682305275683924
238,1.6364705751974512964121868808502
239,1.6373148700792540946086716837073
240,1.6381556388133695005386059080029
241,1.6389929107379265227425515437112
242,1.6398267148264111042068749911880
243,1.6406570796936851032269703587077
244,1.6414840336018807797255644074434
245,1.6423076044661751601158602444241
246,1.6431278198604467992558835321770
247,1.6439447070228163212581195581526
248,1.6447582928610783196869733387983
249,1.6455686039580195856377281728574
250,1.6463756665766340477957338453799
251,1.6471795066652323238808091508248
252,1.6479801498624486813696816682719
253,1.6487776215021504790925449773820
254,1.6495719466182497459536040486779
255,1.6503631499494207761979291789484
256,1.6511512559437238259841028875294
257,1.6519362887631413019998983338228
258,1.6527182722880228861723899252132
259,1.6534972301214463993157465536331
260,1.6542731855934947894137531589714
261,1.6550461617654495575868916424590
262,1.6558161814339053464686300888572
263,1.6565832671348045408703113919244
264,1.6573474411473973308850788197059
265,1.6581087254981257619557370547150
266,1.6588671419644339389362026279401
267,1.6596227120785075966757501282683
268,1.6603754571309430701222390540178
269,1.6611253981743499331405488326943
270,1.6618725560268830294675196201453
271,1.6626169512757131790366726868725
272,1.6633586042804305385136690178460
273,1.6640975351763880584335356963161
274,1.6648337638779822452337547162107
275,1.6655673100818751030390814268788
276,1.6662981932701555328266169538267
277,1.6670264327134476722613633482637
278,1.6677520474739579301258763871214
279,1.6684750564084722177886534770835
280,1.6691954781712954705568092636949
281,1.6699133312171413477161392219707
282,1.6706286338039696075066033809679
283,1.6713414039957743694593896870933
284,1.6720516596653204206106109364623
285,1.6727594184968343728317361408266
286,1.6734646979886466960020103431752
287,1.6741675154557896862935402740351
288,1.6748678880325477713247190043411
289,1.6755658326749648002259389814640
290,1.6762613661633090511243133767910
291,1.6769545051044937969675292857028
292,1.6776452659344563145727183469543
293,1.6783336649204992426547053094538
294,1.6790197181635893257274095867472
295,1.6797034416006156310031943404051
296,1.6803848510066148238293082389733
297,1.6810639619969534333656748062762
298,1.6817407900294764252348709230182
299,1.6824153504066188839788900178783
300,1.6830876582774825559050660948822
301,1.6837577286398776637358920704493
302,1.6844255763423320859719682198658
303,1.6850912160860650740736871512900
304,1.6857546624269290849675409147626
305,1.6864159297773211573799863127043
306,1.6870750324080630951953393098212
307,1.6877319844502476397874076149867
308,1.6883867998970581097499614200340
309,1.6890394926055575972877770608685
310,1.6896900762984480564112062661246
311,1.6903385645658028778334972175878
312,1.6909849708667704636994453257120
313,1.6916293085312501948910030117291
314,1.6922715907615425951795364085089
315,1.6929118306339730118641616814378
316,1.6935500411004901885346850717643
317,1.6941862349902372685602820512355
318,1.6948204250111005805454562333662
319,1.6954526237512333473114484384005
320,1.6960828436805543196577997466712
321,1.6967110971522252538347898217976
322,1.6973373964041033471538036834624
323,1.6979617535601721457713977755316
324,1.6985841806319499017827081713883
325,1.6992046895198771416016696320190
326,1.6998232920146816828506635450374
327,1.7004399997987239205115218740594
328,1.7010548244473195715285706561256
329,1.7016677774300448527185349752734
330,1.7022788701120205236493489250474
331,1.7028881137551762330603692171236
332,1.7034955195194962300439930522110
333,1.7041010984642468185222379233311
334,1.7047048615491837390199937909113
335,1.7053068196357437926454029144741
336,1.7059069834882167653073357526781
337,1.7065053637749005243935198842248
338,1.7071019710692403467395441197327
339,1.7076968158509485423735826159674
340,1.7082899085071104653548970318909
341,1.7088812593332726252615328791017
342,1.7094708785345153964545054612349
343,1.7100587762265099628854095382575
344,1.7106449624365594921320837122684
345,1.7112294471046263579744360137394
346,1.7118122400843428862827385980059
347,1.7123933511440091895548556630829
348,1.7129727899675749018038643124759
349,1.7135505661556083586984682268697
350,1.7141266892262507652742748770464
351,1.7147011686161574387975224462671
352,1.7152740136814258091243055340239
353,1.7158452336985094609114523487726
354,1.7164148378651196321335117463584
355,1.7169828353011145341681278812404
356,1.7175492350493747032167688030157
357,1.7181140460766676220841258413546
358,1.7186772772745008563024524790536
359,1.7192389374599594497244845531328
360,1.7197990353765365174897869499395
361,1.7203575796949487812190166996468
362,1.7209145790139435280221760558863
363,1.7214700418610915889200937795101
364,1.7220239766935713606595108700204
365,1.7225763918989421072755633975040
366,1.7231272957959054190583692320636
367,1.7236766966350577209214150811240
368,1.7242246025996306188881880269905
369,1.7247710218062237172304104310776
370,1.7253159623055256194212166878193
371,1.7258594320830259662007366396091
372,1.7264014390597174672218161908312
373,1.7269419910927878929801826142311
374,1.7274810959763063354974036669182
375,1.7280187614418944293152215345242
376,1.7285549951593939890059742419321
377,1.7290898047375228523986600002350
378,1.7296231977245220969211480841383
379,1.7301551816087964688492346823775
380,1.7306857638195447822164499678892
381,1.7312149517273831628090978757970
382,1.7317427526449582554056520571727
383,1.7322691738275550689107516883521
384,1.7327942224736944230732169991994
385,1.7333179057257236180312041586712
386,1.7338402306704009853252864350930
387,1.7343612043394700697031745799543
388,1.7348808337102273785011650393653
389,1.7353991257060843732742276296444
390,1.7359160871971208927660680164260
391,1.7364317250006303241443719213336
392,1.7369460458816601308625598432832
393,1.7374590565535452106179760129986
394,1.7379707636784326644867429009764
395,1.7384811738678008340905815144494
396,1.7389902936829722576459155217848
397,1.7394981296356201747851360506456
398,1.7400046881882685882666655044767
399,1.7405099757547844483466030308631
400,1.7410139987008662597511350402604
401,1.7415167633445251601507276917252
402,1.7420182759565592153338272013826
403,1.7425185427610237518009244770254
404,1.7430175699356956198496211116136
405,1.7435153636125288525766974001061
406,1.7440119298781078298125038319329
407,1.7445072747740950636881558466285
408,1.7450014042976711090104162528824
409,1.7454943244019694595011689266220
410,1.7459860409965089443606684234908
411,1.7464765599476178851523061254061
412,1.7469658870788535955786867703739
413,1.7474540281714183031884900471058
414,1.7479409889645679168397351306433
415,1.7484267751560179238618990788542
416,1.7489113924023428465299636983558
417,1.7493948463193721063169638348744
418,1.7498771424825794591412331568532
419,1.7503582864274702800997937113670
420,1.7508382836499616795897213998690
421,1.7513171396067594029806138310683
422,1.7517948597157307954204694359745
423,1.7522714493562716678944418932534
424,1.7527469138696706782402515431318
425,1.7532212585594676064594178636017
426,1.7536944886918091311431425511868
427,1.7541666094957995916208790185032
428,1.7546376261638467494975778433981
429,1.7551075438520064619447408584568
430,1.7555763676803191288286325848430
431,1.7560441027331454173065055805764
432,1.7565107540594984133817629977878
433,1.7569763266733675382913014034777
434,1.7574408255540453276376429522292
435,1.7579042556464448969155535827050
436,1.7583666218614159943982026908313
437,1.7588279290760578027269246873059
438,1.7592881821340274712424154748316
439,1.7597473858458450603355862843367
440,1.7602055449891959690042694273045
441,1.7606626643092280054410391324972
442,1.7611187485188466642707835569788
443,1.7615738022990082581045321058462
444,1.7620278302990055227520096255541
445,1.7624808371367550267220667857612
446,1.7629328273990774093299922966504
447,1.7633838056419776165504934029815
448,1.7638337763909183527861623725912
449,1.7642827441410945890251638317893
450,1.7647307133577012797972729302973
451,1.7651776884762017919901263829502
452,1.7656236739025898868408548192974
453,1.7660686740136509981419535069893
454,1.7665126931572191955761110002420
455,1.7669557356524334570180513362710
456,1.7673978057899885467678554358369
457,1.7678389078323851953874914059564
458,1.7682790460141759770010116730263
459,1.7687182245422093979475862403605
460,1.7691564475958718390932531920995
461,1.7695937193273252014894933072573
462,1.7700300438617434683912961396778
463,1.7704654252975467873677249247085
464,1.7708998677066312333726546538846
465,1.7713333751345982214721516135166
466,1.7717659516009806998862466374789
467,1.7721976010994654038216500391296
468,1.7726283275981161856957722091914
469,1.7730581350395908984088717262651
470,1.7734870273413593561634347801786
471,1.7739150083959166398964271195609
472,1.7743420820709960448940292220956
473,1.7747682522097770214487423609690
474,1.7751935226310956125095913050565
475,1.7756178971296463110366787070107
476,1.7760413794761878508211258671951
477,1.7764639734177432637221578391602
478,1.7768856826777988792641714756882
479,1.7773065109565011559314736409404
480,1.7777264619308517386948423019825
481,1.7781455392548992935967483903137
482,1.7785637465599316881336654857886
483,1.7789810874546638973827405322056
484,1.7793975655254244555775386817078
485,1.7798131843363419299570400832681
486,1.7802279474295260016291300215833
487,1.7806418583252500021772401269497
488,1.7810549205221295024424676642506
489,1.7814671374973001815254240017954
490,1.7818785127065928389956577456213
491,1.7822890495847076844520486854455
492,1.7826987515453864924785596720047
493,1.7831076219815825978600057874296
494,1.7835156642656298249508553485800
495,1.7839228817494085435434804776053
496,1.7843292777645120955052632366377
497,1.7847348556224092775509919419425
498,1.7851396186146068252474219669446
499,1.7855435700128093954109780741872
500,1.785946713069079177209016473434
501,1.786349051015990877810407495668
502,1.786750587066789537569854792859
503,1.787151324415542642672516919322
504,1.787551266237294378872490153485
505,1.787950415688214873582526973962
506,1.788348775905750156191124624349
507,1.788746350008770684418109524050
508,1.789143141097718076447959131233
509,1.789539152254748279507149589765
510,1.789934386543877227895394442255
511,1.790328847011122221316095840535
512,1.790722536684642923470237710464
513,1.791115458574880596417177189555
514,1.791507615674696246931087108950
515,1.791899010959508058917906033965
516,1.792289647387426322047003076412
517,1.792679527899386931154262794780
518,1.793068655419285241620746304257
519,1.793457032854107062488666763658
520,1.793844663094059644136150855251
521,1.794231549012699455558190550118
522,1.794617693467061027272663346091
523,1.795003099297783296827578012317
