Eigenstate,Potential Energy
1,0.500000000051419101482010185582163138
2,0.64623093798675188130882097774318900
3,0.73633761069088359575595716881447334
4,0.79966527986777433542897007608186114
5,0.8480465788428337012818684857902468
6,0.8870660023746349207642174546298918
7,0.9197208319031838436981819716142515
8,0.9477838538064022926447717358874236
9,0.9723835670911460821768825466167768
10,0.9942802259063605407764627433079439
11,1.0140094003933474094731282203718177
12,1.0319621858569361111228239991022973
13,1.0484327123630971279731657963293354
14,1.0636476775951159490060902115624728
15,1.0777854626677854470931063075068883
16,1.090988936997855717686666716210470
17,1.103374291765541619066457761330914
18,1.115037290920724472346605674078018
19,1.126057794286931287913025845659855
20,1.136503095195272388824753483375891
21,1.146430426566139469810563790129809
22,1.155888872067946396723841807016213
23,1.164920844053654372645363994094589
24,1.173563240961194494052776339242056
25,1.181848364109394455031825915659742
26,1.189804651505566547219691004758683
27,1.197457270808083696660276612568400
28,1.204828602685419465985380416399929
29,1.211938638018100126298618916063782
30,1.218805306740529332055060603137109
31,1.225444751973707430875306353413091
32,1.231871560021967854588927860870846
33,1.238098954497205233007242042814424
34,1.244138961083523605287849422162939
35,1.250002548116038037706393091384162
36,1.255699747114084077850860730797637
37,1.261239756605004926555486218139301
38,1.266631031944267465616709177823729
39,1.271881363339809629716589774163122
40,1.276997943892700827359314271536288
41,1.281987429149446841848800175235383
42,1.286855989406278041786883765752112
43,1.291609355799273385622075631022186
44,1.296252861046078689249276449400173
45,1.300791475567408056644233722112725
46,1.305229839603381090908014996274258
47,1.309572291846271890753496034188841
48,1.313822895033659473208761892888540
49,1.317985458881306719408511758100727
50,1.32206356068097222668558494804593
51,1.32606056384289248769768445412591
52,1.32997963462432660302111766648177
53,1.33382375725310561509428671765218
54,1.33759574762756741993503282662781
55,1.34129826575078272054194066473011
56,1.34493382703690291576277193688325
57,1.34850481261026185329273204334019
58,1.35201347870306618917320494838134
59,1.35546196524475514888518847747573
60,1.35885230372508597742875902938635
61,1.36218642440343713827441148108565
62,1.36546616292852031595817140525376
63,1.36869326642545038807111829597804
64,1.37186939910081005247146706012389
65,1.37499614741081095557420728965841
66,1.37807502483280582851873679116552
67,1.38110747627614384668885057052653
68,1.38409488216460526725062870371463
69,1.38703856221933872864680525590441
70,1.38993977896829632772168229073872
71,1.39279974100556288641976241004659
72,1.39561960602167757762076137069097
73,1.39840048362399307327047623192877
74,1.40114343796429852941368351801539
75,1.40384949018930162163237079940397
76,1.40651962072811528763698420989962
77,1.40915477142959243534034836589118
78,1.41175584756118607656351025310659
79,1.41432371967996552653041842900991
80,1.41685922538548118366374295826510
81,1.41936317096332106271762401274030
82,1.42183633292744080372933516698495
83,1.42427945946866014548221705239799
84,1.42669327181609456045601998781868
85,1.42907846551773147206706803101360
86,1.43143571164584460961116186251969
87,1.43376565793248258552244826273106
88,1.43606892983984440182548932591846
89,1.43834613156997109049637807123920
90,1.44059784701783947571937151297746
91,1.44282464067162259397487665855085
92,1.44502705846359301035532703554015
93,1.44720562857488301444996655596146
94,1.44936086219707275040136247030898
95,1.45149325425335618170753270715003
96,1.45360328408183296922693846687507
97,1.45569141608328999873433533991857
98,1.45775810033566342008028790651676
99,1.45980377317721858781856363331465
100,1.46182885776033895274905443332123
101,1.46383376457768564966978106147602
102,1.46581889196236395191025322003786
103,1.46778462656362484960558100179011
104,1.46973134379952274396062597242110
105,1.47165940828785717599610733144995
106,1.47356917425663574402530899689187
107,1.47546098593521728215443758809138
108,1.47733517792721513254535025621545
109,1.47919207556617175064524214098871
110,1.48103199525495346246287568857702
111,1.48285524478974833177232878989697
112,1.48466212366950066149192156505461
113,1.48645292339156011769188189093933
114,1.48822792773427470692797792697111
115,1.48998741302721638909578140147543
116,1.49173164840967977635213673808258
117,1.49346089607806265564360124096901
118,1.49517541152269604127606644107737
119,1.49687544375465775024349759204970
120,1.49856123552307765079903573413961
121,1.50023302352340446750699922038624
122,1.50189103859708511288213633318521
123,1.50353550592307532279007106838345
124,1.50516664520158269297454135537015
125,1.50678467083041364781388503219872
126,1.50838979207428067511162008199552
127,1.50998221322740558283975415358020
128,1.51156213376973194656348903658835
129,1.51312974851704784303803782426237
130,1.51468524776530158360082388884687
131,1.51622881742937775686464869512106
132,1.51776063917658591301647434753036
133,1.51928089055510244044224314331473
134,1.52078974511759490944004832249911
135,1.52228737254024004944098287589035
136,1.52377393873734283862665849799097
137,1.52524960597175087688931878392159
138,1.52671453296124460108935952807400
139,1.52816887498108179565998223919634
140,1.52961278396285940564009280341088
141,1.53104640858985110172689693514340
142,1.53246989438897097367254939005346
143,1.53388338381950507817996071441941
144,1.53528701635874538781602965778243
145,1.53668092858465649970122761556904
146,1.53806525425569759398403875814016
147,1.53944012438791392914246377950135
148,1.54080566732941320312164814536658
149,1.54216200883232858124244307984373
150,1.54350927212237203173844301266991
151,1.54484757796607388315586300707979
152,1.54617704473579890276517144219013
153,1.54749778847262784565747241238544
154,1.54880992294718837374640221321370
155,1.55011355971851358064657870094968
156,1.55140880819100598877009673256381
157,1.55269577566957806522153570024555
158,1.55397456741304107457078742310718
159,1.5552452866858059413141257321638
160,1.5565080348079624595388728487556
161,1.5577629112037953458879990411905
162,1.5590100134487965969015784254177
163,1.5602494373152290040099402128451
164,1.5614812768162954627493796660992
165,1.5627056242489626763937252515860
166,1.5639225702354897695660592925373
167,1.5651322037637090441261543059854
168,1.5663346122261015662231044314628
169,1.5675298814577126465792624208346
170,1.5687180957729469570980436750611
171,1.5698993380012834782315372936574
172,1.5710736895219481437428591508889
173,1.5722412302975795851695940462700
174,1.5734020389069238194790333379351
175,1.5745561925765918648243497727802
176,1.5757037672119099907310122168083
177,1.5768448374268958632273821458551
178,1.5779794765733897392921522650098
179,1.5791077567693671555410773366875
180,1.5802297489264640575285802854669
181,1.5813455227767370182269968476561
182,1.5824551468986862410456230001624
183,1.5835586887425643966402637018625
184,1.5846562146549955350261324346466
185,1.5857477899029258810944471566030
186,1.5868334786969274821283790876482
187,1.5879133442138785077931861459570
188,1.5889874486190356388912592541081
189,1.5900558530875222759468284004544
190,1.5911186178252482186715704796696
191,1.5921758020892800388363841778178
192,1.5932274642076785287252653489710
193,1.5942736615988215289914520517393
194,1.5953144507902254766704046432687
195,1.5963498874368836056795986037429
196,1.5973800263391344916760152705234
197,1.5984049214600753165628420118421
198,1.5994246259425340145946238246413
199,1.6004391921256131339051987505460
200,1.6014486715608193536275835914844
201,1.6024531150277896329931668930594
202,1.6034525725496273685309591050736
203,1.6044470934078592140568008055346
204,1.6054367261570241783239557644197
205,1.6064215186389049656553064755715
206,1.6074015179964145782640939896246
207,1.6083767706871440508973403661949
208,1.6093473224965855392164856339411
209,1.6103132185510365047520075339417
210,1.6112745033301964920411743526417
211,1.6122312206794638569144505869366
212,1.6131834138219426730631112492374
213,1.6141311253701641947861389050331
214,1.6150743973375378516094078546518
215,1.6160132711495309810129201316583
216,1.6169477876545912537265103418848
217,1.6178779871348157506400253378445
218,1.6188039093163756637819133110529
219,1.6197255933796998943056073526519
220,1.6206430779694300556151453095294
221,1.6215564012041447839241556669319
222,1.6224656006858705536168002380343
223,1.6233707135093725582465055206543
224,1.6242717762712407164739543327007
225,1.6251688250787733594913631282415
226,1.6260618955586621378775498362522
227,1.6269510228654867907343993592012
228,1.6278362416900215873084442765835
229,1.6287175862673605932451104466873
230,1.6295950903848664477162162671575
231,1.6304687873899444406882773705533
232,1.6313387101976522992483439905412
233,1.6322048912981406684890550243290
234,1.6330673627639404330151083024372
235,1.6339261562570900501681223305041
236,1.6347813030361125937345270130434
237,1.6356328339628461282602814399372
238,1.6364807795091291449799379724224
239,1.6373251697633464949360403424106
240,1.6381660344368379727020686328644
241,1.6390034028701738320527306227765
242,1.6398373040393000895270309048419
243,1.6406677665615576466530511989708
244,1.6414948187015769190643809284777
245,1.6423184883770523456149713260325
246,1.6431388031643992960538053509408
247,1.6439557903042947590399820696690
248,1.6447694767071093910471743325737
249,1.6455798889582258946673307075669
250,1.6463870533232541104297304230811
251,1.6471909957531407215568976374162
252,1.6479917418891763695676666648219
253,1.6487893170679052523405457648512
254,1.6495837463259368609057823351193
255,1.6503750544046637344054475146174
256,1.6511632657548853179998526924072
257,1.6519484045413443144756493972312
258,1.6527304946471719736255802207377
259,1.6535095596782491222621848305876
260,1.6542856229674833205815683030775
261,1.6550587075790024579468695398064
262,1.6558288363122695128349214355293
263,1.6565960317061173268462184852398
264,1.6573603160427088429484323308545
265,1.6581217113514213324987695962466
266,1.6588802394126567780958861498471
267,1.6596359217615816248111721806824
268,1.6603887796917959328174863680863
269,1.6611388342589362006324598393733
270,1.6618861062842075824199982427160
271,1.6626306163578547826051749018821
272,1.6633723848425656066665163509494
273,1.6641114318768146105184899831878
274,1.6648477773781440568025842442779
275,1.6655814410463860529648791291109
276,1.6663124423668241487738174751682
277,1.6670408006133018765913887701398
278,1.6677665348512699883461306373947
279,1.6684896639407838916772779120019
280,1.6692102065394433781206157746480
281,1.6699281811052825321645380169343
282,1.6706436058996073174502501083379
283,1.6713564989897840525678857630436
284,1.6720668782519759329907008627269
285,1.6727747613738344064138692614723
286,1.6734801658571414262505436043687
287,1.6741831090204076425829320972999
288,1.6748836080014229323531239427017
289,1.6755816797597639168644450314327
290,1.6762773410792591991301583650226
291,1.6769706085704101620180443452479
292,1.6776614986727702121065350862567
293,1.6783500276572863750363326094624
294,1.6790362116285982792829280294801
295,1.6797200665272966155036284489765
296,1.6804016081321486570312570252502
297,1.6810808520622807732496209656862
298,1.6817578137793272526138456689402
299,1.6824325085895422381827281401091
300,1.6831049516458765262787557788646
301,1.6837751579500196397240147010677
302,1.6844431423544092685947697954780
303,1.6851089195642052516354118195438
304,1.6857725041392316758721321119895
305,1.6864339104958885229653705671840
306,1.6870931529090321255324778634950
307,1.6877502455138216154279828612853
308,1.6884052023075388424425647660154
309,1.6890580371513778527208362104113
310,1.6897087637722042620782574845159
311,1.6903573957642881191552240618753
312,1.6910039465910077715771914972913
313,1.6916484295865261279044003977322
314,1.6922908579574411196822331101032
315,1.6929312447844096832732942293095
316,1.6935696030237466371494160330160
317,1.6942059455089959932886405818794
318,1.6948402849524800539604505424828
319,1.6954726339468234355012520569391
320,1.6961030049664520203786403751171
321,1.6967314103690707565194730858365
322,1.6973578623971164183752776744483
323,1.6979823731791888438051424265261
324,1.6986049547314596239599095174564
325,1.6992256189590600081913165727748
326,1.6998443776574462612577861943256
327,1.7004612425137452936265149035607
328,1.7010762251080777541128905374605
329,1.7016893369148635597618246956370
330,1.7023005893041062946844491654573
331,1.7029099935426579164738233735730
332,1.7035175607954648314726205760829
333,1.7041233021267957174796258408246
334,1.7047272285014492779508372141448
335,1.7053293507859462426602112650258
336,1.7059296797497016729063685208733
337,1.7065282260661804435452188858672
338,1.7071250003140369607359425220125
339,1.7077200129782351799434890492643
340,1.7083132744511550155752089747989
341,1.7089047950336808558671131687491
342,1.7094945849362746802079242036021
343,1.7100826542800334167299708679771
344,1.7106690130977305339139003465359
345,1.7112536713348436855843365396154
346,1.7118366388505658841329185354546
347,1.7124179254188037673705137923829
348,1.7129975407291597707787475816548
349,1.7135754943879017501287459948830
350,1.7141517959189175968566662466436
351,1.7147264547646569338457200058764
352,1.7152994802870595740294588250030
353,1.7158708817684700262454974248161
354,1.7164406684125394628663639715415
355,1.7170088493451155145447635771666
356,1.7175754336151181019161587485130
357,1.7181404301954045433589519891721
358,1.7187038479836231828754345245085
359,1.7192656958030512832981780320620
360,1.7198259824034261228064937476414
361,1.7203847164617610396887548622312
362,1.7209419065831529070208874491112
363,1.7214975613015756329441798443359
364,1.7220516890806647106082171993849
365,1.7226042983144910542211655311474
366,1.7231553973283229989515846980618
367,1.7237049943793793567693735874055
368,1.7242530976575703170350595589372
369,1.7247997152862308244624686344225
370,1.7253448553228421477129547263122
371,1.7258885257597444920146597422097
372,1.7264307345248396123720198987717
373,1.7269714894822833941692863790815
374,1.7275107984331727097360291059003
375,1.7280486691162172425369910818269
376,1.7285851092084077352937507184433
377,1.7291201263256724513446476596359
378,1.7296537280235250167499062203415
379,1.7301859217977054830422184673423
380,1.7307167150848113674880473704049
381,1.7312461152629215463968299218681
382,1.7317741296522101197515045328344
383,1.7323007655155549219277617600463
384,1.7328260300591356423095384611632
385,1.7333499304330251771651692455695
386,1.7338724737317748715464349251381
387,1.7343936669949894006593418404462
388,1.7349135172078952276192371421078
389,1.7354320313019033123891392444714
390,1.7359492161551632611252515282148
391,1.7364650785931092329868112658071
392,1.7369796253890012129079536318659
393,1.7374928632644591239396743601886
394,1.7380047988899883603793949261903
395,1.7385154388854995986893743079881
396,1.7390247898208225371970838655540
397,1.7395328582162131946152403948033
398,1.7400396505428547756481420254435
399,1.7405451732233506696089571578702
400,1.7410494326322138821427667780969
401,1.7415524350963489491142188788724
402,1.7420541868955270780172507537013
403,1.7425546942628573377913565844444
404,1.7430539633852517902803836704099
405,1.7435520004038820289306831113183
406,1.7440488114146332339137832241686
407,1.7445444024685528605487288088737
408,1.7450387795722914643795603582857
409,1.7455319486885385241426767914863
410,1.7460239157364557772691019716946
411,1.7465146865921023281074607177047
412,1.7470042670888551116263314714843
413,1.7474926630178257918304997528380
414,1.7479798801282705189161661730301
415,1.7484659241279968293042926856527
416,1.7489508006837641183749685267261
417,1.7494345154216805345726636784210
418,1.7499170739275934583152354872549
419,1.7503984817474778444101985965377
420,1.7508787443878174101026065367722
421,1.7513578673159826211393121056817
422,1.7518358559606047576607431050117
423,1.7523127157119438962715848087934
424,1.7527884519222544222293772845019
425,1.7532630699061444513311300770180
426,1.7537365749409327685608142750217
427,1.7542089722670007683563961972928
428,1.7546802670881394104143628187458
429,1.7551504645718951036572186899793
430,1.7556195698499073807078336351710
431,1.7560875880182458667718985210106
432,1.7565545241377436926913496993741
433,1.7570203832343226903197477409571
434,1.7574851702993214684163389019249
435,1.7579488902898141929957218360545
436,1.7584115481289279733930241668789
437,1.7588731487061570156866857056310
438,1.7593336968776725258241501316125
439,1.7597931974666290440359243676908
440,1.7602516552634682820427635264666
441,1.7607090750262176232043432177260
442,1.7611654614807868495542458200007
443,1.7616208193212627437249104600612
444,1.7620751532101961854447280380813
445,1.7625284677788910735852005902491
446,1.7629807676276860984300438164478
447,1.7634320573262365336674135114178
448,1.7638823414137892666440830201603
449,1.7643316243994589077265208408405
450,1.7647799107624971315645615208310
451,1.7652272049525627537075655607606
452,1.7656735113899853842853130821661
453,1.7661188344660284021982214725161
454,1.7665631785431476391442023363583
455,1.7670065479552493977412047671816
456,1.7674489470079431011390887714104
457,1.7678903799787932702309894950709
458,1.7683308511175672247700212054796
459,1.7687703646464810227360106545961
460,1.7692089247604432807229932277397
461,1.7696465356272947255074884612577
462,1.7700832013880466902931703358319
463,1.7705189261571171598603101095538
464,1.7709537140225625259851673487520
465,1.7713875690463090223413582063165
466,1.7718204952643809700630476096063
467,1.7722524966871251149786057701145
468,1.7726835772994360726600792054134
469,1.7731137410609753585005906950988
470,1.7735429919063915278826491349574
471,1.7739713337455356940834993789477
472,1.7743987704636767220752670151060
473,1.7748253059217114496817205288676
474,1.7752509439563774406559677124622
475,1.7756756883804571930170613334015
476,1.7760995429829863170463339616286
477,1.7765225115294560165484662573621
478,1.7769445977620145499840325601902
479,1.7773658053996665614953220173086
480,1.7777861381384706770488859105633
481,1.7782055996517339172355792160564
482,1.7786241935902064961868291922445
483,1.7790419235822723872943658638588
484,1.7794587932341384761931827923510
485,1.7798748061300237786002604898289
486,1.7802899658323433085409401718941
487,1.7807042758818934464904548386165
488,1.7811177397980334046872841004464
489,1.7815303610788660184984900847223
490,1.7819421432014157276834096077472
491,1.7823530896218058825697385532669
492,1.7827632037754339640840992148761
493,1.7831724890771446934111658653436
494,1.7835809489214021261085963129819
495,1.7839885866824589239762627637275
496,1.7843954057145260499237380852598
497,1.7848014093519385721952610528447
498,1.7852066009093215240664870854419
499,1.7856109836817533172148374430565
500,1.786014560944928840131469696118
501,1.786417335955317988510966720238
502,1.786819311950327083708753517348
503,1.787220492148454648327731860872
504,1.787620879749449383727894623057
505,1.788020477934463197901617196405
506,1.788419289866205014800383813022
507,1.788817318689093214165651860995
508,1.789214567529406342868860776407
509,1.789611039495430329723766679390
510,1.790006737677608258103024335729
511,1.790401665148685928563896920382
512,1.790795824963857112829450025719
513,1.791189220160907116049378466429
514,1.791581853760355325019918230515
515,1.791973728765597117906367229979
516,1.792364848163043347149394715971
517,1.792755214922258471656831996193
518,1.793144831996099125079806876522
519,1.793533702320849903558321988598
520,1.793921828816359231424194614556
521,1.794309214386172101611167555471
522,1.794695861917663968535600108163
523,1.795081774282172232207034204333
