Eigenstate,Potential Energy
1,0.500000000199226726122345388220360750
2,0.64623093895157178510319340104016282
3,0.73633761352500415722217758838642736
4,0.79966528577103784430530326235287734
5,0.8480465890687457349249003536518467
6,0.8870660181987984299096853243901551
7,0.9197208546116930439864175625554884
8,0.9477838846910250463443921670401111
9,0.9723836074471044819721690361072334
10,0.9942802770312236171966579570810706
11,1.0140094635864474065062916929221583
12,1.0319622624190515955196653266300704
13,1.0484328035962813954600367430933245
14,1.0636477848026090811946465857852616
15,1.0777855871539768658437253583018689
16,1.090989080068278492529224412584670
17,1.103374454726887463071224206449692
18,1.115037475080872646083145884097363
19,1.126058000954987118335150002431137
20,1.136503325681612605423130465913548
21,1.146430682182462487994550666314508
22,1.155889154127326269949066568328318
23,1.164921153870597521542263124894374
24,1.173563579851698579377134355028450
25,1.181848733391008937674139870307080
26,1.189805052497454601117782078134217
27,1.197457704831085227119642826985397
28,1.204829071062115048117604154934208
29,1.211939142072875723580032105019830
30,1.218805847799641688420666017976969
31,1.225445331365350054714474639140390
32,1.231872179076337531854256155300128
33,1.238099614546569021032203852298707
34,1.244139663462286269997558192385177
35,1.250003294160809905533964475967517
36,1.255700538163749280444794312226079
37,1.261240594000790021724922331076557
38,1.266631917029810422239043933672257
39,1.271882297461229167771335509904374
40,1.276998928398666107037755287705036
41,1.281988465391247497961280494961136
42,1.286857078737894561556159037171518
43,1.291610499577447829495035461958116
44,1.296254060630385755644561336943252
45,1.300792732320326492630968932339473
46,1.305231154890365451720345481277813
47,1.309573667035824651818174062367409
48,1.313824331497403499024354215532598
49,1.317986957994058094184293752157105
50,1.32206512382081345214241978105990
51,1.32606219239124605386545058677803
52,1.32998132996602893824752693330859
53,1.33382552077648142181759466455721
54,1.33759758072450440307513192945340
55,1.34130016981680671563630211729464
56,1.34493580347125342422097443442951
57,1.34850686281596799236930847353163
58,1.35201560408702306446788657685246
59,1.35546416721780065737310838768856
60,1.35885458370207804920546693208211
61,1.36218878380333142537197678115171
62,1.36546860317444833675199862979961
63,1.36869578894479813595285302555913
64,1.37187200532529707761342311467751
65,1.37499883877656992875660314325972
66,1.37807780278046259613203260090029
67,1.38111034225089798616203051755288
68,1.38409783761631115229227767014862
69,1.38704160860258711382037883451968
70,1.38994291774249646200822927693445
71,1.39280297363502516555484423436494
72,1.39562293397569674512229841590293
73,1.39840390837693198020727436953148
74,1.40114696099567246309478998739936
75,1.40385311298386321353074167590989
76,1.40652334477594001099264574570535
77,1.40915859822616470302312828305126
78,1.41175977860748594990992655647557
79,1.41432775648255604600608908687967
80,1.41686336945659633233985968243161
81,1.41936742382095437369050877369138
82,1.42184069609543462275268668858331
83,1.42428393447679556022541663858277
84,1.42669786020018200794697771713181
85,1.42908316881970203602578566331497
86,1.43144053141384201952972837880897
87,1.43377059572095592949982632757260
88,1.43607398720964156531971568959819
89,1.43835131008843293331430971285251
90,1.44060314825889475972381836839043
91,1.44283006621588367415193526607989
92,1.44503260989845230204997577509051
93,1.44721130749461024974670085549061
94,1.44936667020291303679788210849117
95,1.45149919295362887640440578095106
96,1.45360935509203138253327102529670
97,1.45569762102618194027143666254109
98,1.45776444084139260164850364682520
99,1.45981025088340689698131973363374
100,1.46183547431218961137843205455578
101,1.46384052162808727189358730104972
102,1.46582579117199551609819591786576
103,1.46779166960106159923483398398052
104,1.46973853234134303240736629103128
105,1.47166674401875027050874126478402
106,1.47357665886951060434958158253260
107,1.47546862113131232949851952366986
108,1.47734296541620902479469242208003
109,1.47920001706629517996404062477354
110,1.48104009249310199164902605697086
111,1.48286349950159628596804065158031
112,1.48467053759961609209222205954353
113,1.48646149829352085553668902674463
114,1.48823666537078552211276553874228
115,1.48999631517022727498973627918699
116,1.49174071684050537567097741800837
117,1.49347013258750284668787259411063
118,1.49518481791115770271449940645848
119,1.49688502183227772309493333005718
120,1.49857098710984691654550803204573
121,1.50024295044929356155553274065591
122,1.50190114270217079288244651963680
123,1.50354578905766851161155483398154
124,1.50517710922635771644723380627060
125,1.50679531761653878764585204110268
126,1.50840062350355005770847041217612
127,1.50999323119237242507143558638517
128,1.51157334017384317984972976654490
129,1.51314114527478013745569805214504
130,1.51469683680229879405518132209504
131,1.51624060068258981371210666280323
132,1.51777261859440917987910882516548
133,1.51929306809752156231202528788782
134,1.52080212275632617453853502355835
135,1.52229995225887628867320933544124
136,1.52378672253149988684795291801096
137,1.52526259584921562059421557556421
138,1.52672773094212463752529121754502
139,1.52818228309795672877477091948227
140,1.52962640426093380468333175208035
141,1.53106024312710914874510479214643
142,1.53248394523633282656769375170530
143,1.53389765306098497643778487151056
144,1.53530150609161152845659703804452
145,1.53669564091959271145865364656644
146,1.53808019131696683818785595299608
147,1.53945528831352365624540151986377
148,1.54082106027128259430160379544965
149,1.54217763295645770500067960334592
150,1.54352512960901294591655985363271
151,1.54486367100990371330995249549209
152,1.54619337554609492835639027870140
153,1.54751435927344462605446036240524
154,1.54882673597753694657869257613011
155,1.55013061723254276560481300327444
156,1.55142611245818583051713507998843
157,1.55271332897488544965646056775442
158,1.55399237205714755328057203288534
159,1.5552633449852677996493257877506
160,1.5565263490954130643676498059405
161,1.5577814838281398097097192512755
162,1.5590288467754087956438658450348
163,1.5602685337261509864872915266811
164,1.5615006387104392904310694319633
165,1.5627252540423147328110148305224
166,1.5639424703613175793851799862454
167,1.5651523766727706426255461801767
168,1.5663550603868574606402081825287
169,1.5675506073565404115332979045838
170,1.5687391019143585070534632752990
171,1.5699206269081450607398844427724
172,1.5710952637357030979909802083286
173,1.5722630923784739111686480012204
174,1.5734241914342346040533102169225
175,1.5745786381488586113998619178453
176,1.5757265084471689007841550206299
177,1.5768678769629171181311181599024
178,1.5780028170679178321951403773025
179,1.5791314009003643238303643289415
180,1.5802536993923568673644212121148
181,1.5813697822966661535930744828764
182,1.5824797182127595507356594620510
183,1.5835835746121132536014286884766
184,1.5846814178628345634990175042999
185,1.5857733132536161080330949151645
186,1.5868593250170429704479449206545
187,1.5879395163522765300833496680837
188,1.5890139494471304513463299244142
189,1.5900826854995625534008371720352
190,1.5911457847385982127893846001127
191,1.5922033064447045227019470486650
192,1.5932553089696315922821742541186
193,1.5943018497557392910344680733566
194,1.5953429853548227803562423874404
195,1.5963787714464547658250365946002
196,1.5974092628558581634387012183070
197,1.5984345135713235564596824571190
198,1.5994545767611856062000373898023
199,1.6004695047903712519945483618528
200,1.6014793492365336419813283312463
201,1.6024841609057827725645400366815
202,1.6034839898480262142022791283564
203,1.6044788853719305797606328426604
204,1.6054688960595153519005222780482
205,1.6064540697803890364416737716301
206,1.6074344537056406620786444963503
207,1.6084100943213924987865019857682
208,1.6093810374420282180736352848994
209,1.6103473282231022397050685810690
210,1.6113090111739417623298191804206
211,1.6122661301699488388477895674428
212,1.6132187284646127255631611323874
213,1.6141668487012368849802587708798
214,1.6151105329243956199394984484416
215,1.6160498225911195473825705117416
216,1.6169847585818238683097300331877
217,1.6179153812109833951255949826204
218,1.6188417302375633110314061972685
219,1.6197638448752089366609112685328
220,1.6206817638022070144015507998786
221,1.6215955251712164150613978897981
222,1.6225051666187854666764440370265
223,1.6234107252746494687764466928026
224,1.6243122377708234539549555289753
225,1.6252097402504927558981991988504
226,1.6261032683767049244865896698030
227,1.6269928573408716335561602239255
228,1.6278785418710823943281676270634
229,1.6287603562402372295276292858593
230,1.6296383342740029973763734388210
231,1.6305125093585951577468242572692
232,1.6313829144483953924876465085411
233,1.6322495820734000685942407152371
234,1.6331125443465156935391334045342
235,1.6339718329706945371911632915621
236,1.6348274792459201225087226379696
237,1.6356795140760462086353506676289
238,1.6365279679754910009997398609529
239,1.6373728710757920276830771536623
240,1.6382142531320238392502950802037
241,1.6390521435290828172654411392373
242,1.6398865712878419514166912449681
243,1.6407175650711796201043850262284
244,1.6415451531898840669078042623633
245,1.6423693636084379503366782400953
246,1.6431902239506854898418163329605
247,1.6440077615053835943874365627183
248,1.6448220032316445587842990035854
249,1.6456329757642653010594992973297
250,1.6464407054189535298757322536170
251,1.6472452181974487464478584321130
252,1.6480465397925408840257083718967
253,1.6488446955929916618555775744367
254,1.6496397106883583153316670051858
255,1.6504316098737235873584865511347
256,1.6512204176543320714507434949272
257,1.6520061582501393032152808672876
258,1.6527888556002700503433571219816
259,1.6535685333673926101950874535703
260,1.6543452149420095070923455840137
261,1.6551189234466649089462337734207
262,1.6558896817400734947296442462689
263,1.6566575124211696296180554098360
264,1.6574224378330823051109497157616
265,1.6581844800670343760055013998922
266,1.6589436609661682688113677846876
267,1.6597000021293013819061794156747
268,1.6604535249146112184149071159759
269,1.6612042504432545292295695093238
270,1.6619521996029161980328459942288
271,1.6626973930512971602586912760206
272,1.6634398512195353437607785576381
273,1.6641795943155670827827026192360
274,1.6649166423274262229829275545588
275,1.6656510150264848021068174826254
276,1.6663827319706335939497559094859
277,1.6671118125074100092192612346041
278,1.6678382757770651178267249221591
279,1.6685621407155813059780938158443
280,1.6692834260576326721639668564954
281,1.6700021503394960624220088062035
282,1.6707183319019102530551078795609
283,1.6714319888928865055038953112424
284,1.6721431392704676625427416007762
285,1.6728518008054426060687545716780
286,1.6735579910840121146278597150032
287,1.6742617275104111937854716468234
288,1.6749630273094842953408481202733
289,1.6756619075292180881225878191366
290,1.6763583850432325280049150663773
291,1.6770524765532280836682406557645
292,1.6777441985913920190780998563524
293,1.6784335675227676550218083148257
294,1.6791205995475816636983364307289
295,1.6798053107035315011212060167043
296,1.6804877168680405810721770881904
297,1.6811678337604711410717271137807
298,1.6818456769443041364571307660749
299,1.6825212618292829853836819948230
300,1.6831946036735229359421673151358
301,1.6838657175855864880890256422284
302,1.6845346185265269852537182584168
303,1.6852013213118975714043107067061
304,1.6858658406137291144901152645728
305,1.6865281909624785489326114819810
306,1.6871883867489469253201460849433
307,1.6878464422261643750562587029091
308,1.6885023715112494950116817359153
309,1.6891561885872392689674074737786
310,1.6898079073048898894364157557653
311,1.6904575413844521041427189833670
312,1.6911051044174186306794176586882
313,1.6917506098682450634851502581311
314,1.6923940710760461098822593766124
315,1.6930355012562665083943402361643
316,1.6936749135023280397036862099567
317,1.6943123207872502047694799668695
318,1.6949477359652499585054821380348
319,1.6955811717733176790222475676776
320,1.6962126408327694134781336392222
321,1.6968421556507793606412162033299
322,1.6974697286218887472215129101210
323,1.6980953720294946561341016837143
324,1.6987190980473178295357555059753
325,1.6993409187408512559266980261903
326,1.6999608460687878275624770067267
327,1.7005788918844299397182412548148
328,1.7011950679370782736079591735412
329,1.7018093858734047923436172141492
330,1.7024218572388064381205582563070
331,1.7030324934787410277853238934010
332,1.7036413059400464687612520757690
333,1.7042483058722437368606458293695
334,1.7048535044288218653292110728949
335,1.7054569126685093278094629964348
336,1.7060585415565279435853772810248
337,1.7066584019658322503224334394516
338,1.7072565046783354788656793845066
339,1.7078528603861182732416614942750
340,1.7084474796926263288053757691453
341,1.7090403731138527469089578588738
342,1.7096315510795076912697111240166
343,1.7102210239341750753221170555904
344,1.7108088019384563693005375228266
345,1.7113948952701034451788367632599
346,1.7119793140251380369526981972274
347,1.7125620682189614883911250955441
348,1.7131431677874517110027665884670
349,1.7137226225880510126204849239083
350,1.7143004424008424590980550262234
351,1.7148766369296169817101331716338
352,1.7154512158029310427299891359928
353,1.7160241885751542790034103124893
354,1.7165955647275086789973388983776
355,1.7171653536690998054593679893727
356,1.7177335647379384264423524105798
357,1.7183002072019559531156426448687
358,1.7188652902600130944357488804059
359,1.7194288230428976469360486298560
360,1.7199908146143205380410630904187
361,1.7205512739719020559713434175532
362,1.7211102100481549441492586325807
363,1.7216676317114591605279878653963
364,1.7222235477670335395408132596709
365,1.7227779669579028161318866520264
366,1.7233308979658591224123663423299
367,1.7238823494124210921719069662558
368,1.7244323298597876160227699987468
369,1.7249808478117911451241649733411
370,1.7255279117148465340713316484131
371,1.7260735299588985661906033995151
372,1.7266177108783674209283561025476
373,1.7271604627530923671137196228240
374,1.7277017938092783223163643482270
375,1.7282417122204363169872360617487
376,1.7287802261083296829472726543890
377,1.7293173435439181358534028622772
378,1.7298530725483033174671938101814
379,1.7303874210936780548997754357390
380,1.7309203971042765309702307468512
381,1.7314520084573286995297013561961
382,1.7319822629840165446175702531960
383,1.7325111684704373622149657036548
384,1.7330387326585695572025044133853
385,1.7335649632472451318130522304964
386,1.7340898678931301068910100151135
387,1.7346134542117092371293524135573
388,1.7351357297782795997820510660467
389,1.7356567021289544068288586027359
390,1.7361763787616749395227154274888
391,1.7366947671372316685757105394798
392,1.7372118746802989533313220409458
393,1.7377277087804816193163154586688
394,1.7382422767933728645245034526742
395,1.7387555860416272665277808763497
396,1.7392676438160495052257227147621
397,1.7397784573766994467482120645021
398,1.7402880339540146671018946656030
399,1.7407963807499501100114496874981
400,1.7413035049391403693767302914769
401,1.7418094136700819014127352035203
402,1.7423141140663372376316197594949
403,1.7428176132277654195668485599901
404,1.7433199182317780274443285856228
405,1.7438210361346198314059866052678
406,1.7443209739726818269431808715243
407,1.7448197387638455191888667511509
408,1.7453173375088578087871701903128
409,1.7458137771927412982496711126041
410,1.7463090647862446066513342401182
411,1.7468032072473291493774921643447
412,1.7472962115226982939041284694305
413,1.7477880845493724397366746311990
414,1.7482788332563090658500005579430
415,1.7487684645660748098791875886873
416,1.7492569853965689611243528410451
417,1.7497444026628043525470077344684
418,1.7502307232787461490689298234290
419,1.7507159541592163563308373302797
420,1.7512001022218628043813233561660
421,1.7516831743892005744422260690129
422,1.7521651775907294277689513037350
423,1.7526461187651296309702828754616
424,1.7531260048625446515672807396690
425,1.7536048428469522879963469314435
426,1.7540826396986333750943450661080
427,1.7545594024167414604209079392051
428,1.7550351380219797813081349956713
429,1.7555098535593962087571259456301
430,1.7559835561012962459761681219041
431,1.7564562527502893206411335719808
432,1.7569279506424738067065462475821
433,1.7573986569507649954673937298232
434,1.7578683788883866403217124221453
435,1.7583371237125241234323107390678
436,1.7588048987281581263167699512974
437,1.7592717112920887673009252540777
438,1.7597375688171618801773175300511
439,1.7602024787767117750728089009529
440,1.7606664487092362644136191388163
441,1.7611294862233169700417300710755
442,1.7615915990028055777201812488695
443,1.7620527948122941479053447484343
444,1.7625130815028840453834634474658
445,1.7629724670182843798505412978717
446,1.7634309594012543118100799472260
447,1.7638885668004216575646178497068
448,1.7643452974774983944681067228665
449,1.7648011598149306116958265292603
450,1.7652561623240073109014224899698
451,1.7657103136534706092956561126672
452,1.7661636225986583114989946182303
453,1.7666160981112261029470173763156
454,1.7670677493094909926977099646252
455,1.7675185854894489818143517112717
456,1.7679686161365161485687091811089
457,1.7684178509380567619931316676457
458,1.7688662997967592935058853604330
459,1.7693139728449334741116697889040
460,1.7697608804598055078283435771346
461,1.7702070332798943533516082962908
462,1.7706524422225657975357422324190
463,1.7710971185028658467692844461942
464,1.7715410736537450187965361253190
465,1.7719843195478026551923676039866
466,1.7724268684206866599073714861883
467,1.7728687328963009235842604719368
468,1.7733099260139949305021909570405
469,1.7737504612579160540878521828833
470,1.7741903525887409774627675684845
471,1.7746296144780129679278734652287
472,1.7750682619453483693266263125467
473,1.7755063105987968374157566315647
474,1.7759437766786861328177795516810
475,1.7763806771053024807485657339894
476,1.7768170295308252300920912229519
477,1.7772528523959626932464237267510
478,1.7776881649918079070757781874244
479,1.7781229875274931380846710395922
480,1.7785573412042990626258297732429
481,1.7789912482969596814368237009690
482,1.7794247322430093338842893252135
483,1.7798578177411259139610652529036
484,1.7802905308595661697715218996707
485,1.7807228991559437129660407498006
486,1.7811549518097753210893874641230
487,1.7815867197694458376013774035829
488,1.7820182359154786678238185433189
489,1.7824495352423000857956610231722
490,1.7828806550610251630890070021006
491,1.7833116352262054496983456142751
492,1.7837425183899593129650364068322
493,1.7841733502874841292270658994963
494,1.7846041800586403728235416875672
495,1.7850350606111225691185666823435
496,1.7854660490317347203999028461819
497,1.7858972070534875171709849676625
498,1.7863286015877103932193099800587
499,1.7867603053321571234958224288251
500,1.787192397468287464902338225759
501,1.787624964463613497400841446125
502,1.788058100998374819387021169977
503,1.788491911039985830242304590484
504,1.788926509093977801028014826081
505,1.789362021666788221153411519104
506,1.789798588984208114037392522877
507,1.790236367020099981393310902575
508,1.790675529903941353295675775100
509,1.791116272793869301502524138437
510,1.791558815325667211356070998757
511,1.792003405779553535189492821944
512,1.792450326148631022570832013678
513,1.792899898349527356868549162545
514,1.793352491893128218407257398343
515,1.793808533440198131764705099183
516,1.794268518816314478255485778803
517,1.794733028272991536368728833226
518,1.795202746088204832592591053484
519,1.795678486048754942014601885093
520,1.796161225028057878299054564850
521,1.796652147896368586633540344407
522,1.797152708596973578546303213023
523,1.797664714776467773954671098354
