Eigenstate,Potential Energy
1,0.500000000012424378988935446822046770
2,0.64623093773221449505566512630079585
3,0.73633760994319983512570296391230904
4,0.79966527831043236041546775210659180
5,0.8480465761451941304526662563921279
6,0.8870659982002688901956699846975672
7,0.9197208259129452667196283023980957
8,0.9477838456597091880146141049824715
9,0.9723835564465764561253748821451473
10,0.9942802124219548816568442344729003
11,1.0140093837267730688264950464598702
12,1.0319621656655813039503677777017192
13,1.0484326883041266172299798828028793
14,1.0636476493255046790843267809202107
15,1.0777854298443388741147787598849564
16,1.090988899277221783136465779056016
17,1.103374248804217287252492062672221
18,1.115037242375058621937857815859521
19,1.126057739813125091653130294710563
20,1.136503034449377920997394786241237
21,1.146430359204057036323315710251349
22,1.155888797745420926627265359058592
23,1.164920762426271107887225997949403
24,1.173563151684374146063812480017580
25,1.181848266838387950208135864430048
26,1.189804545895449451030720296248597
27,1.197457156513750383258617178397417
28,1.204828479361577083793272305607385
29,1.211938505319262398106905722097930
30,1.218805164321010219365189695748417
31,1.225444599487614685642191399718895
32,1.231871397123196476560926223700767
33,1.238098780839430847074921850074040
34,1.244138776320195770338348292788697
35,1.250002351900373496214631960506244
36,1.255699539099059953663130257782454
37,1.261239536443351876917784949816535
38,1.266630799288462792383359082420416
39,1.271881117842070353779272294686412
40,1.276997685204976729614030938044743
41,1.281987156923413473431491897390083
42,1.286855703293329705828975236501200
43,1.291609055450516092383312806292587
44,1.296252546112323086159868274586739
45,1.300791145699162334518155666728526
46,1.305229494450843867363862320276969
47,1.309571931059325071690389727374022
48,1.313822518261861093025602091719735
49,1.317985065773883760520343916525562
50,1.32206315088681341877657006424348
51,1.32606013701054108705263486575273
52,1.32997919040197315219417054262815
53,1.33382329528858068310161387226384
54,1.33759526756833432309660265556748
55,1.34129776724393022404382659897656
56,1.34493330972913791596501918518754
57,1.34850427614790204076727297052548
58,1.35201292273203269242073062503337
59,1.35546138941056515864890942772536
60,1.35885170767284535149544956582354
61,1.36218580777783298662896526500041
62,1.36546552537381356613630146432739
63,1.36869260758546833053578522255562
64,1.37186871861893886582155434829505
65,1.37499544492998821137854129388357
66,1.37807429999551297555486803324282
67,1.38110672872439867435357309058259
68,1.38409411153995434789796054705138
69,1.38703776816284983859879754638923
70,1.38993896112055084668835476145486
71,1.39279889900664817505556143729338
72,1.39561873951117933293741147923600
73,1.39839959224098766161854966221261
74,1.40114252134734529673868038894024
75,1.40384854797643518070469515600277
76,1.40651865255683778194949738514728
77,1.40915377693686577936160074287463
78,1.41175482638342417202960700271067
79,1.41432267145302645445359043005915
80,1.41685814974465937173116121592644
81,1.41936206754333942774944691585022
82,1.42183520136244286886086419877552
83,1.42427829939220213173098840427270
84,1.42669208286113745233076176937809
85,1.42907724731663305687166938841602
86,1.43143446383035149009327567368354
87,1.43376438013372216551265595460931
88,1.43606762168831684450963534836246
89,1.43834479269554124896028189960644
90,1.44059647704972879540184283616354
91,1.44282323923840098666165574250208
92,1.44502562519317069934346426531687
93,1.44720416309450235050896128515777
94,1.44935936413329999815428699238395
95,1.45149172323207327605221874005171
96,1.45360171972822924141439654018839
97,1.45568981802185387171828108922194
98,1.45775646819017407274892839319322
99,1.45980210657073758771644646519709
100,1.46182715631520185689403755600513
101,1.46383202791549357306697852908988
102,1.46581711970397510336186770347888
103,1.46778281832914603441258524553957
104,1.46972949920830083310895882858835
105,1.47165752695847054141731338135807
106,1.47356725580688565951830494361715
107,1.47545902998211928955205747936829
108,1.47733318408699037270624724184641
109,1.47919004345423825884858772895995
110,1.48102992448591742778014772856870
111,1.48285313497739531998738704814793
112,1.48465997442678680113733001860867
113,1.48645073433060324876623631294042
114,1.48822569846634549185576572620211
115,1.48998514316272938548807503608551
116,1.49172933755818447112307371921688
117,1.49345854384823446003428726566692
118,1.49517301752232724633419673315180
119,1.49687300759064844230367660124198
120,1.49855875680142658650509897988083
121,1.50023050184919990791450212063488
122,1.50188847357449561617541143445145
123,1.50353289715534049514490741561635
124,1.50516399229100389709386196331160
125,1.50678197337834466866018696139436
126,1.50838704968111834235633990382022
127,1.50997942549258034954597256844873
128,1.51155930029169842361468206002962
129,1.51312686889327528882175380433478
130,1.51468232159226434845249465149008
131,1.51622584430254568177268090405974
132,1.51775761869041468208582529326644
133,1.51927782230302388661011588291482
134,1.52078662869200727293284377831605
135,1.52228420753249818845778953496842
136,1.52377072473774839173066871540569
137,1.52524634256954237658403899504532
138,1.52671121974458753805259594361439
139,1.52816551153705863310409339704116
140,1.52960936987745954326287045810611
141,1.53104294344796078871305622764555
142,1.53246637777436317020134321182888
143,1.53387981531482926489004459434820
144,1.53528339554551732267404737237924
145,1.53667725504324792171631222237438
146,1.53806152756532587320550593361712
147,1.53943634412663166237342485654460
148,1.54080183307409775477656905144176
149,1.54215812015867156877179452067316
150,1.54350532860486875503898761184924
151,1.54484357917801269737969735964657
152,1.54617299024925053393621294326766
153,1.54749367785843464849877311555795
154,1.54880575577495353111669407277856
155,1.55010933555659024397930976860843
156,1.55140452660648635890264632829638
157,1.55269143622828241299770011896578
158,1.55397016967950670059366062519146
159,1.5552408302232760742214753495618
160,1.5565035191783750921674130629819
161,1.5577583359677720086875242358630
162,1.5590053781656310679542597110855
163,1.5602447415428759550046043533553
164,1.5614765201113590402545388155081
165,1.5627008061666850177673507945005
166,1.5639176903297394528345543790099
167,1.5651272615869694711586835139410
168,1.5663296073294592785213000054385
169,1.5675248133908455729968226227683
170,1.5687129640841125927975984278714
171,1.5698941422373069941809716418173
172,1.5710684292282104260459990148702
173,1.5722359050180052035204712888826
174,1.5733966481839689240219708534063
175,1.5745507359512320106957751770110
176,1.5756982442236278895521754224274
177,1.5768392476136690608104204181447
178,1.5779738194716782188151835805725
179,1.5791020319141008654410543364941
180,1.5802239558510303633535990088832
181,1.5813396610129680776827926773426
182,1.5824492159768463014637588425014
183,1.5835526881913370140882939271294
184,1.5846501440014707142726924740598
185,1.5857416486725871356345611564972
186,1.5868272664136388134673432632875
187,1.5879070603998713031790668939496
188,1.5889810927948954866788936502183
189,1.5900494247721756977680296485554
190,1.5911121165359493175785583585564
191,1.5921692273415970625774371077464
192,1.5932208155154803473033946399238
193,1.5942669384742640256488319579527
194,1.5953076527437378514328763044768
195,1.5963430139771545905872743501389
196,1.5973730769730984768174153238835
197,1.5983978956928983860213645311416
198,1.5994175232775998914076786892308
199,1.6004320120645090331270444527155
200,1.6014414136033217425783853950156
201,1.6024457786718498977678001445517
202,1.6034451572913573858312185841875
203,1.6044395987415168274024463130741
204,1.6054291515749985776876039966495
205,1.6064138636317019695576627671990
206,1.6073937820526418173554361996897
207,1.6083689532934960520421978469803
208,1.6093394231378287090880214862128
209,1.6103052367099940119330317604483
210,1.6112664384877330466181295368087
211,1.6122230723144703865411552850854
212,1.6131751814113208944601197699740
213,1.6141228083888110796309388820746
214,1.6150659952583299857627775204575
215,1.6160047834433088160151730069642
216,1.6169392137901432494869559423533
217,1.6178693265788624082318949953003
218,1.6187951615335534472434866615849
219,1.6197167578325450403371783730577
220,1.6206341541183622700501895351128
221,1.6215473885074508238408935876472
222,1.6224564985996876939453257998971
223,1.6233615214876719417139868581799
224,1.6242624937658105857189912377152
225,1.6251594515392021701657833080164
226,1.6260524304323215515420010526741
227,1.6269414655975145463414542829792
228,1.6278265917233042500540786167332
229,1.6287078430425161795566393315719
230,1.6295852533402269251319705136730
231,1.6304588559615381013706328825969
232,1.6313286838191860058589973989025
233,1.6321947694009819711413206290566
234,1.6330571447770995560046666821873
235,1.6339158416072017471695516390075
236,1.6347708911474178701371593631160
237,1.6356223242571738293024719056333
238,1.6364701714058774083264299691126
239,1.6373144626794640663286751311311
240,1.6381552277868053832988894359529
241,1.6389924960659844360559548876831
242,1.6398262964904409606853152898276
243,1.6406566576749903322071941613878
244,1.6414836078817180496913363512225
245,1.6423071750257540999079594048800
246,1.6431273866809297180612335842213
247,1.6439442700853179273693541405967
248,1.6447578521466654380236123586142
249,1.6455681594477108740201515044310
250,1.6463752182513997119630569378316
251,1.6471790545059938312436617829363
252,1.6479796938500784734889403131332
253,1.6487771616174716828749006882730
254,1.6495714828420358835548244608469
255,1.6503626822623954736246604369873
256,1.6511507843265605203849329863325
257,1.6519358131964629476363669023475
258,1.6527177927524016590605757777324
259,1.6534967465974034005289957786130
260,1.6542726980614997470370410564751
261,1.6550456702059205273132645808007
262,1.6558156858272084108280824120472
263,1.6565827674612535070814238598379
264,1.6573469373872534273196672408716
265,1.6581082176315973332066641160061
266,1.6588666299716761394784861095373
267,1.6596221959396220831110180197017
268,1.6603749368259776919964868213857
269,1.6611248736832984223251468099524
270,1.6618720273296846880932738562476
271,1.6626164183522525659707547958731
272,1.6633580671105371543690876898801
273,1.6640969937398360291008096657216
274,1.6648332181544900039243389345251
275,1.6655667600511050708300476156645
276,1.6662976389117137976960110648490
277,1.6670258740068836666035864976984
278,1.6677514843987641067363830126224
279,1.6684744889440837243071353798002
280,1.6691949062970898223580446987832
281,1.6699127549124380992375213465336
282,1.6706280530480300220013392762812
283,1.6713408187678010871642944600921
284,1.6720510699444571253172927231754
285,1.6727588242621654568499397399557
286,1.6734640992191969235037833301415
287,1.6741669121305238550268295234776
288,1.6748672801303703726848854236322
289,1.6755652201747196776736306133696
290,1.6762607490437790569380813857076
291,1.6769538833444004473194175975551
292,1.6776446395124594429150104866182
293,1.6783330338151966514059791518994
294,1.6790190823535164362458816362959
295,1.6797028010642451318353131499759
296,1.6803842057223563172214327336495
297,1.6810633119431530800265995004056
298,1.6817401351844165873369188533772
299,1.6824146907485177663851050071760
300,1.6830869937844938456100690125585
301,1.6837570592900901675077602062097
302,1.6844249021137693661824896855251
303,1.6850905369566850827042627427230
304,1.6857539783746237957777974515464
305,1.6864152407799161962262108135705
306,1.6870743384433173684856881162532
307,1.6877312854958529610607460693023
308,1.6883860959306388243650789853573
309,1.6890387836046702052097176800750
310,1.6896893622405808330812139699138
311,1.6903378454283754931091502686276
312,1.6909842466271335988512723875522
313,1.6916285791666851576419215596970
314,1.6922708562492609327732957451880
315,1.6929110909511161221488720988157
316,1.6935492962241289290473763651277
317,1.6941854848973715635984757934657
318,1.6948196696786590262114252496213
319,1.6954518631560728145148751248842
320,1.6960820777994595550624601162300
321,1.6967103259619084787346059160132
322,1.6973366198812038542637534663213
323,1.6979609716812558939184406889743
324,1.6985833933735091084819319440357
325,1.6992038968583298735026537854891
326,1.6998224939263714440389697487873
327,1.7004391962599192386501853872431
328,1.7010540154342135818242114554145
329,1.7016669629187548796966999044633
330,1.7022780500785876607235664658560
331,1.7028872881755649198792714296609
332,1.7034946883695938276007801547335
333,1.7041002617198631820105025163860
334,1.7047040191860507884199783397667
335,1.7053059716295150810246162186777
336,1.7059061298144670448191520297575
337,1.7065045044091253099575425683407
338,1.7071011059868554773871705121794
339,1.7076959450272897402421787469547
340,1.7082890319174328923138709963659
341,1.7088803769527504371534071194929
342,1.7094699903382412949340387423013
343,1.7100578821894947448396409657956
344,1.7106440625337315966640627054684
345,1.7112285413108314109332126165405
346,1.7118113283743432423221978651230
347,1.7123924334924834717036722325522
348,1.7129718663491175385288687707648
349,1.7135496365447291184434805763637
350,1.7141257535973742884563070779897
351,1.7147002269436227672422826136102
352,1.7152730659394859129226297137076
353,1.7158442798613307626781121475671
354,1.7164138779067815286499624728787
355,1.7169818691956089153902543459078
356,1.7175482627706054686288868543725
357,1.7181130675984501943801806159541
358,1.7186762925705616923751137992543
359,1.7192379465039355489429347827245
360,1.7197980381419749272466686695746
361,1.7203565761553060997269136772938
362,1.7209135691425854043398151150521
363,1.7214690256312922201883555720959
364,1.7220229540785129865271460972514
365,1.7225753628717145014943314795285
366,1.7231262603295053782272402877762
367,1.7236756547023885503592579590684
368,1.7242235541735016156141941018147
369,1.7247699668593496500313427978534
370,1.7253149008105262059844681849685
371,1.7258583640124253472919727239796
372,1.7264003643859436778857673936181
373,1.7269409097881723307430966410459
374,1.7274800080130832255493571089152
375,1.7280176667922002866504978146739
376,1.7285538937952670774993411095029
377,1.7290886966309026407953104435266
378,1.7296220828472487117179334326163
379,1.7301540599326101440445859886055
380,1.7306846353160853059061225430904
381,1.7312138163681893206049155013617
382,1.7317416104014672706540258823030
383,1.7322680246711020396876329833383
384,1.7327930663755117559320082677491
385,1.7333167426569404584799113489800
386,1.7338390606020426450090796858961
387,1.7343600272424574502681303614504
388,1.7348796495553763921151069536882
389,1.7353979344641053597800860963907
390,1.7359148888386180334430252046138
391,1.7364305194961010520521127883127
392,1.7369448332014945377434076259203
393,1.7374578366680254503317200921391
394,1.7379695365577323529526257478782
395,1.7384799394819844457109030529705
396,1.7389890520019945181851448704636
397,1.7394968806293254506787000047333
398,1.7400034318263902723328778733924
399,1.7405087120069443418753649374416
400,1.7410127275365739509425631599865
401,1.7415154847331773988768487987184
402,1.7420169898674392841961422368106
403,1.7425172491633008334563815159855
404,1.7430162687984241605774195563421
405,1.7435140549046479220581244014636
406,1.7440106135684404770956104730808
407,1.7445059508313476693091807398854
408,1.7450000726904327332431457692421
409,1.7454929850987111867056590220794
410,1.7459846939655832234022282185419
411,1.7464752051572578658615340733863
412,1.7469645244971724612230475333678
413,1.7474526577664085989257007495057
414,1.7479396107041008741229991158817
415,1.7484253890078427807667356669928
416,1.7489099983340861639721481165453
417,1.7493934442985370801308970145428
418,1.7498757324765452279876664713234
419,1.7503568684034912291717469063806
420,1.7508368575751667400849820418037
421,1.7513157054481513473092094522677
422,1.7517934174401855281149268744078
423,1.7522699989305375121905454332515
424,1.7527454552603676582958021514314
425,1.7532197917330867251780921500195
426,1.7536930136147116435703430569751
427,1.7541651261342162738781692289275
428,1.7546361344838771632219439600805
429,1.7551060438196182141988926735117
430,1.7555748592613471274478968834719
431,1.7560425858932911216478297977737
432,1.7565092287643290804401295639298
433,1.7569747928883154641481444316113
434,1.7574392832444070842060213001803
435,1.7579027047773805639464297003621
436,1.7583650623979483867115771571233
437,1.7588263609830716926315829742607
438,1.7592866053762688061076679518176
439,1.7597458003879201752780102785206
440,1.7602039507955707946521363675939
441,1.7606610613442272707388977875836
442,1.7611171367466530942861885782190
443,1.7615721816836617667987416925975
444,1.7620262008044024006761121611039
445,1.7624791987266471235994082909856
446,1.7629311800370713114860543842251
447,1.7633821492915338191501758210543
448,1.7638321110153504268389454759820
449,1.7642810697035683431176851412445
450,1.7647290298212339165127210966898
451,1.7651759958036610589734723172261
452,1.7656219720566932224687376229926
453,1.7660669629569646717553087463490
454,1.7665109728521574422336646074098
455,1.7669540060612576067282558698694
456,1.7673960668748061481564923957418
457,1.7678371595551491337576344221474
458,1.7682772883366835867420801463161
459,1.7687164574261015692493063833838
460,1.7691546710026321189205207183090
461,1.7695919332182788887731547510452
462,1.7700282481980567033900640291355
463,1.7704636200402256351555306076807
464,1.7708980528165207614056909682559
465,1.7713315505723815711892822112446
466,1.7717641173271781522961335330182
467,1.7721957570744334390294304157535
468,1.7726264737820465363219408869826
469,1.7730562713925095968521992430083
470,1.7734851538231257756597952676686
471,1.7739131249662225293245533015661
472,1.7743401886893645572791313962040
473,1.7747663488355617361142515677087
474,1.7751916092234795508269396831912
475,1.7756159736476409457226265808460
476,1.7760394458786321087315505952024
477,1.7764620296633025220908919392455
478,1.7768837287249639553349967871068
479,1.7773045467635872899308651645722
480,1.7777244874559975700926730065176
481,1.7781435544560658306015100266369
482,1.7785617513949012703685137810067
483,1.7789790818810391516881027324488
484,1.7793955495006272448853021501499
485,1.7798111578176122951813336478103
486,1.7802259103739210965177494978635
487,1.7806398106896430210674594748719
488,1.7810528622632086008645120947722
489,1.7814650685715673895962212968908
490,1.7818764330703629675451822496680
491,1.7822869591941072238237417542510
492,1.7826966503563525039451128052410
493,1.7831055099498615975949435773652
494,1.7835135413467766604961441458425
495,1.7839207478987852627124414071984
496,1.7843271329372868076598519468324
497,1.7847326997735550071919993440053
498,1.7851374516989003578549194536959
499,1.7855413919848301154728608112050
500,1.785944523883207898373961756066
501,1.786346850626408665101215178116
502,1.786748375427476521593113232830
503,1.787149101480276825759117576491
504,1.787549031959650433083358778978
505,1.787948170021562930513468635666
506,1.788346518803254588509658363648
507,1.788744081423388879064724806935
508,1.789140860982199199433771842090
509,1.789536860561632032239219821872
510,1.789932083225492594959917858124
511,1.790326532019586209649804541469
512,1.790720209971859292848961964754
513,1.791113120092538581190251814660
514,1.791505265374269268929668641908
515,1.791896648792252431464204152468
516,1.792287273304379944991143174090
517,1.792677141851367976864781884589
518,1.793066257356890831853610354579
519,1.793454622727711936059499432616
520,1.793842240853814815319407635071
521,1.794229114608530863136296891547
522,1.794615246848668174157449085389
523,1.795000640414637880175620996153
