Eigenstate,Potential Energy
1,0.500000000031734288840213352405669002
2,0.64623093785825945095627453365041028
3,0.73633761031344639191111737924262548
4,0.79966527908161271868870425389954502
5,0.8480465774810342410385107441125888
6,0.8870660002673587807273482554373323
7,0.9197208288792169539505038215783908
8,0.9477838496938014460531236359558712
9,0.9723835617175390120750361749330288
10,0.9942802190990978939776371271490300
11,1.0140093919795849979350310715721515
12,1.0319621756636816342463651428830418
13,1.0484327002172375521548152696882788
14,1.0636476633234337549783457675268135
15,1.0777854460969681609729467294170810
16,1.090988917954501222729483498825865
17,1.103374270076160722359357733171924
18,1.115037266411741630120101868658156
19,1.126057766784684061919791530875424
20,1.136503064526010007074257986738712
21,1.146430392556020741416919334735691
22,1.155888834543037151848319429349420
23,1.164920802839924547015572731745120
24,1.173563195884514943110430991231262
25,1.181848314995533559271272143773155
26,1.189804598180186653955486326889359
27,1.197457213096737431925588890851959
28,1.204828540413545941983156622739574
29,1.211938571011021063800249263572709
30,1.218805234823445112696100432389385
31,1.225444674971693090979588329566522
32,1.231871477759969029647533442031677
33,1.238098866800034060028072930063122
34,1.244138867775854588759879523733391
35,1.250002449022403883778774295832360
36,1.255699642058871500430434864188447
37,1.261239645412450428317692850541096
38,1.266630914438453096360866515741483
39,1.271881239344658724044280836153202
40,1.276997813231973723289589170672651
41,1.281987291646736581687446999270111
42,1.286855844885006056324735921209646
43,1.291609204082685162538233521213257
44,1.296252701957239426430611981288019
45,1.300791308929198300995917608523306
46,1.305229665238492363115708650396824
47,1.309572109577202296362233059904749
48,1.313822704682709300302891033388064
49,1.317985260270574023108873244875982
50,1.32206335363234840062211872348088
51,1.32606034817805782256613162566705
52,1.32997941016474583229007515887606
53,1.33382352382002344789238490347167
54,1.33759550504200406111645248535790
55,1.34129801383352937790112344402436
56,1.34493356560851729434541465658824
57,1.34850454149106363672932274277193
58,1.35201319771313250794308265929492
59,1.35546167420391603540310099378330
60,1.35885200245291980783163558600374
61,1.36218611271926606077350703512028
62,1.36546584065140566561045410485254
63,1.36869293337418808781377436160172
64,1.37186905509392600025440754472077
65,1.37499579226655639741726003091769
66,1.37807465836915271731290877307261
67,1.38110709831078018655436026901089
68,1.38409449251493044325828842156574
69,1.38703816070245882170369530167651
70,1.38993936540101941441703697057270
71,1.39279931520439432362205447598981
72,1.39561916780281527161273238038788
73,1.39840003280332273320456196443131
74,1.40114297435738890486655591580944
75,1.40384901361139972403358123584403
76,1.40651913099414159534334822732829
77,1.40915426835413608212439416134761
78,1.41175533095850002328120514477262
79,1.41432318936396171573044270894813
80,1.41685868116972567689774655383975
81,1.41936261266102916030809098887482
82,1.42183576035147214674907755612846
83,1.42427887243151379969691058009651
84,1.42669267012990408197870018200329
85,1.42907784899425995447101849461587
86,1.43143508009647971224527801088134
87,1.43376501116823154277071909326570
88,1.43606826767132901304997854698832
89,1.43834545380742269040076229317280
90,1.44059715347109388486783674227868
91,1.44282393115011504919888855159796
92,1.44502633277635307477858176953952
93,1.44720488653052946685960922518441
94,1.44936010360380845369131996801026
95,1.45149247891896293011758278676889
96,1.45360249181366631409899857243701
97,1.45569060668827405250510870170883
98,1.45775727362028563822735217952517
99,1.45980292894752452847459100088339
100,1.46182799582192701369677300604642
101,1.46383288473570178242792872213631
102,1.46581799402149635261859642528917
103,1.46778371032809862641479918484998
104,1.46973040907309456063048456781526
105,1.47165845487380987140317960348274
106,1.47356820195777292727910291506548
107,1.47545999455385790301847992286109
108,1.47733416726518802685739475457958
109,1.47919104542481016042844758102092
110,1.48103094543508953041729921332048
111,1.48285417509170756983377355449241
112,1.48466103389309639314267689003109
113,1.48645181333608789370537159714204
114,1.48822679719850669422689644141781
115,1.48998626180939573240079024797344
116,1.49173047630751493229557656722177
117,1.49345970288872169902009231586371
118,1.49517419704280094309933061529838
119,1.49687420778027862727607794627996
120,1.49855997784972698621876324377554
121,1.50023174394603130237161660731013
122,1.50188973691006920805050824361961
123,1.50353418192022129095582407044761
124,1.50516529867611410046508168468192
125,1.50678330157496708580491564784264
126,1.50838839988089979990442555143269
127,1.50998079788753512484560411127867
128,1.51156069507421168763663735247595
129,1.51312828625610656179566176695511
130,1.51468376172855096836546522377131
131,1.51622730740580628586146052183521
132,1.51775910495455270145454376336694
133,1.51927933192233105410627948597121
134,1.52078816186116714441536289271735
135,1.52228576444658967759156739445792
136,1.52377230559224931844296844935525
137,1.52524794756033302931899936055126
138,1.52671284906795424996093410611965
139,1.52816716538969737230599166790274
140,1.52961104845647951732295289003858
141,1.53104464695088806346713979085923
142,1.53246810639914430307574396123531
143,1.53388156925983495285496307603161
144,1.53528517500954606497361571967518
145,1.53667906022552969751870828889111
146,1.53806335866552583431757576600298
147,1.53943820134485384116518735282330
148,1.54080371661088878746184682559444
149,1.54216003021502443419236949343720
150,1.54350726538222652910046936280943
151,1.54484554287827232328845032269817
152,1.54617498107476660838757242004989
153,1.54749569601202322396792234481156
154,1.54880780145989593440440755974877
155,1.55011140897663691116596725421019
156,1.55140662796586068686502141494915
157,1.55269356573168462764381930507912
158,1.55397232753211774197236688308448
159,1.5552430166307614986642944487660
160,1.5565057343468889916213755674166
161,1.5577605801039609473988076957308
162,1.5590076514766380366635754800062
163,1.5602470442363443428162816968441
164,1.5614788523954366243425614413823
165,1.5627031682500279710827245985762
166,1.5639200824215163699794138190028
167,1.5651296838968654125937918060909
168,1.5663320600676798332749400381445
169,1.5675272967681209400439233387332
170,1.5687154783117016812795825979753
171,1.5698966875270015426376336126610
172,1.5710710057923391408322847270482
173,1.5722385130694379165820066629207
174,1.5733992879361207702046794605519
175,1.5745534076180676247660648498292
176,1.5757009480196656231055040743979
177,1.5768419837539852192473634184239
178,1.5779765881719113185654261437041
179,1.5791048333904559116170594752899
180,1.5802267903202831480170833328308
181,1.5813425286924694989084833973702
182,1.5824521170845267033862275281411
183,1.5835556229457105481191369558314
184,1.5846531126216397216766480147082
185,1.5857446513782465516547412853577
186,1.5868303034250805931908572772563
187,1.5879101319379888693361827481444
188,1.5889841990811881995699519733791
189,1.5900525660287533475141101688141
190,1.5911152929855366388932326867605
191,1.5921724392075382722584493362668
192,1.5932240630217437046447211192841
193,1.5942702218454464159750757887048
194,1.5953109722050693929594589563446
195,1.5963463697545032648115240584468
196,1.5973764692929747826472300247626
197,1.5984013247824600178497697040019
198,1.5994209893646564413430679330970
199,1.6004355153775267175908177579367
200,1.6014449543714281534830707598016
201,1.6024493571248387784905438658846
202,1.6034487736596934321993496838114
203,1.6044432532563405139092503842044
204,1.6054328444681310091584926445150
205,1.6064175951356497584883312230078
206,1.6073975524006019871457202962515
207,1.6083727627193609663508460355350
208,1.6093432718761910275355831012312
209,1.6103091249961516723817927041910
210,1.6112703665576942742599416393305
211,1.6122270404049587300257774432777
212,1.6131791897597802892985766875407
213,1.6141268572334109391104963645388
214,1.6150700848379703196117722020037
215,1.6160089139976253770580737242070
216,1.6169433855595127085319787086197
217,1.6178735398044075574353648828893
218,1.6187994164571484321972423093881
219,1.6197210546968206211273791595261
220,1.6206384931667111115378330437176
221,1.6215517699840328154164288766975
222,1.6224609227494352990119866610721
223,1.6233659885562955771563577643155
224,1.6242670039998040316156056598481
225,1.6251640051858480100067869055779
226,1.6260570277396966432148400101660
227,1.6269461068144955241499966080102
228,1.6278312770995730580387036587513
229,1.6287125728285656363850445127755
230,1.6295900277873663208328794679073
231,1.6304636753218988261846868422953
232,1.6313335483457272114835777635839
233,1.6321996793474962646483635407933
234,1.6330621003982187267129333713008
235,1.6339208431584025267551624891218
236,1.6347759388850277262685808302679
237,1.6356274184383767930888565815838
238,1.6364753122887199358703610582663
239,1.6373196505228609346770443055528
240,1.6381604628505456210882302944267
241,1.6389977786107372891509926157354
242,1.6398316267777618931120152846895
243,1.6406620359673270626845137379413
244,1.6414890344424166240681728143160
245,1.6423126501190649998146168499450
246,1.6431329105720140060876074392258
247,1.6439498430402534290843690218718
248,1.6447634744324529611536475065795
249,1.6455738313322804651064378084996
250,1.6463809400036169508215725523904
251,1.6471848263956661635532259562397
252,1.6479855161479615818364978912291
253,1.6487830345952758965895890651851
254,1.6495774067724326276657922055646
255,1.6503686574190237572800758228249
256,1.6511568109840334650731132961498
257,1.6519418916303743555526646707283
258,1.6527239232393326219668114795662
259,1.6535029294149289494553425651621
260,1.6542789334881955431794780768534
261,1.6550519585213695944828821228832
262,1.6558220273120079098116266154847
263,1.6565891623970215522758216970694
264,1.6573533860566359460063711051206
265,1.6581147203182749678353995873601
266,1.6588731869603711933327481314208
267,1.6596288075161055097315177063667
268,1.6603816032770761287420131987533
269,1.6611315952969012684537045193347
270,1.6618788043947512277500112720648
271,1.6626232511588191364725865572803
272,1.6633649559497243601796880053885
273,1.6641039389038560018929745633427
274,1.6648402199366537091307586462888
275,1.6655738187458296610868329072752
276,1.6663047548145300135874226707018
277,1.6670330474144432851198853405212
278,1.6677587156088474378608361352417
279,1.6684817782556071561518197354422
280,1.6692022540101134152721483651576
281,1.6699201613281732293158353510213
282,1.6706355184688470744244311505283
283,1.6713483434972371998061825003855
284,1.6720586542872239830600412405155
285,1.6727664685241571370496040070744
286,1.6734718037074977930552528387383
287,1.6741746771534165194800520420682
288,1.6748751059973436778691909128684
289,1.6755731071964767642907083682942
290,1.6762686975322454685890900423805
291,1.6769618936127322924358415065612
292,1.6776527118750516110674727583000
293,1.6783411685876910844693733316983
294,1.6790272798528104549045649173976
295,1.6797110616084998179157287585967
296,1.6803925296310049523448280147769
297,1.6810716995369096410793128058246
298,1.6817485867852842992598768954389
299,1.6824232066797977127897052782873
300,1.6830955743707936377320241617967
301,1.6837657048573326720157303906544
302,1.6844336129892014923630680404834
303,1.6850993134688866295501733498148
304,1.6857628208535163595110477947405
305,1.6864241495567721387934378881119
306,1.6870833138507688475677381777630
307,1.6877403278679010221442579370713
308,1.6883952056026625554289284262350
309,1.6890479609134359545846298809071
310,1.6896986075242514910463647554325
311,1.6903471590265198377949826566112
312,1.6909936288807357070238946770916
313,1.6916380304181538809492853373834
314,1.6922803768424394400396255496905
315,1.6929206812312915083097014371070
316,1.6935589565380418913229311905227
317,1.6941952155932261455096057763486
318,1.6948294711061324300478248278036
319,1.6954617356663252828719395908693
320,1.6960920217451443220686937729534
321,1.6967203416971817915980726612773
322,1.6973467077617350657723366930566
323,1.6979711320642376265347219523226
324,1.6985936266176674906805752599183
325,1.6992142033239348490038809790614
326,1.6998328739752471545990552800053
327,1.7004496502554544810759429594178
328,1.7010645437413723398856128383633
329,1.7016775659040869316184920080563
330,1.7022887281102392629435444227253
331,1.7028980416232895677678595588311
332,1.7035055176047630938437995549341
333,1.7041111671154776333640053246359
334,1.7047150011167509815533057807969
335,1.7053170304715926381750855679934
336,1.7059172659458758099893787294923
337,1.7065157182094925863938468248577
338,1.7071123978374933470849500068514
339,1.7077073153112064662316744965289
340,1.7083004810193444044880270455611
341,1.7088919052590919024070934022280
342,1.7094815982371787723917987491034
343,1.7100695700709369269571423161259
344,1.7106558307893416369968557041535
345,1.7112403903340388393743867411110
346,1.7118232585603559686188972712348
347,1.7124044452382998780710373327321
348,1.7129839600535386621882739025777
349,1.7135618126083709249207889360420
350,1.7141380124226800364846316733189
351,1.7147125689348754661224879322589
352,1.7152854915028208732036041309071
353,1.7158567894047482410284111938223
354,1.7164264718401594678011610524509
355,1.7169945479307157800418307657267
356,1.7175610267211131782138578665081
357,1.7181259171799471536002955107915
358,1.7186892282005659204238014726464
359,1.7192509686019079083443931189738
360,1.7198111471293324532489631381542
361,1.7203697724554354311971154348281
362,1.7209268531808563171194652216762
363,1.7214823978350712638775657080639
364,1.7220364148771772256759634722702
365,1.7225889126966653621910992492462
366,1.7231398996141826010835713011838
367,1.7236893838822842509022637246247
368,1.7242373736861744531078405839050
369,1.7247838771444391057593528761798
370,1.7253289023097669720387299935545
371,1.7258724571696618269214548531613
372,1.7264145496471445984726759032098
373,1.7269551876014454704844090295604
374,1.7274943788286902549336753920463
375,1.7280321310625717258320145870611
376,1.7285684519750173706826524314734
377,1.7291033491768453487576240647839
378,1.7296368302184118236066028919908
379,1.7301689025902515096010546000972
380,1.7306995737237081892798835173105
381,1.7312288509915580769338301995438
382,1.7317567417086231466005003119939
383,1.7322832531323790991330897270768
384,1.7328083924635529320453826520434
385,1.7333321668467137333898766095533
386,1.7338545833708573583226737581707
387,1.7343756490699807376926749920432
388,1.7348953709236497554544182885520
389,1.7354137558575613695897814071904
390,1.7359308107440971656445630858456
391,1.7364465424028686598192454403510
392,1.7369609576012579599901361468912
393,1.7374740630549512581449670214877
394,1.7379858654284637353286807961683
395,1.7384963713356587359696081713515
396,1.7390055873402608624515184658519
397,1.7395135199563626198372352526472
398,1.7400201756489246188758726057361
399,1.7405255608342679030826451466774
400,1.7410296818805626998462666274892
401,1.7415325451083096444816260776081
402,1.7420341567908142224420354888911
403,1.7425345231546572504281010868531
404,1.7430336503801592894816958070110
405,1.7435315446018364555074964720879
406,1.7440282119088537362554158584144
407,1.7445236583454729314816954184793
408,1.7450178899114927194817966107192
409,1.7455109125626837110697301776731
410,1.7460027322112210054818166168581
411,1.7464933547261085082211433642861
412,1.7469827859335985934309216397182
413,1.7474710316176081898561801377470
414,1.7479580975201277142381768874442
415,1.7484439893416271361040880507055
416,1.7489287127414556035843970412455
417,1.7494122733382374787452068094787
418,1.7498946767102619456718824263773
419,1.7503759283958704698167017250597
420,1.7508560338938370905324146022063
421,1.7513349986637454989771857983679
422,1.7518128281263621829940074695676
423,1.7522895276640034751062462610516
424,1.7527651026209001173556412279031
425,1.7532395583035557223436007938815
426,1.7537128999811027373181710023666
427,1.7541851328856533959372611639873
428,1.7546562622126456713978716009083
429,1.7551262931211881433204018290282
430,1.7555952307343966404944452775310
431,1.7560630801397301631428016422636
432,1.7565298463893232342178878069017
433,1.7569955345003100176301915797154
434,1.7574601494551513013456367342725
435,1.7579236962019521690283261693029
436,1.7583861796547782612190924305631
437,1.7588476046939687874205822004074
438,1.7593079761664452711542216264391
439,1.7597672988860167092935613313396
440,1.7602255776336822168881788595644
441,1.7606828171579283173319786023070
442,1.7611390221750244415219278946681
443,1.7615941973693162837035180191880
444,1.7620483473935116333735916223246
445,1.7625014768689680139003754775338
446,1.7629535903859731522089873691595
447,1.7634046925040254487017926736981
448,1.7638547877521076656149336805045
449,1.7643038806289616743151872165385
450,1.7647519756033564139787317070419
451,1.7651990771143565647454319629638
452,1.7656451895715847766970668212436
453,1.7660903173554831977309193324305
454,1.7665344648175706892773870459423
455,1.7669776362806993537341179680980
456,1.7674198360393056706149136027655
457,1.7678610683596609371209449181225
458,1.7683013374801174090300301761441
459,1.7687406476113526558294798641368
460,1.7691790029366117724349319981859
461,1.7696164076119452972200835630196
462,1.7700528657664460494086860338726
463,1.7704883815024834895991152763166
464,1.7709229588959337643281450312082
465,1.7713566019964094034106123795624
466,1.7717893148274858007517809133531
467,1.7722211013869237591498486146131
468,1.7726519656468931147300190628854
469,1.7730819115541899177093979119812
470,1.7735109430304546940329771275216
471,1.7739390639723860549903122442225
472,1.7743662782519539524258768736340
473,1.7747925897166079304471193443061
474,1.7752180021894878776259228490626
475,1.7756425194696262024508855548813
476,1.7760661453321539458365166606790
477,1.7764888835285011636899583217336
478,1.7769107377865962555238474289462
479,1.7773317118110631285025564284162
480,1.7777518092834165915044683111859
481,1.7781710338622545300781455443516
482,1.7785893891834504310795248687416
483,1.7790068788603416369909431560393
484,1.7794235064839161496772018043087
485,1.7798392756229994604569397461311
486,1.7802541898244359912834186031993
487,1.7806682526132719958185536454262
488,1.7810814674929345168876386496908
489,1.7814938379454096284154804095687
490,1.7819053674314178248893785989825
491,1.7823160593905886925487823205431
492,1.7827259172416334504066533976445
493,1.7831349443825153360264687866778
494,1.7835431441906189300074364492702
495,1.7839505200229166115880392070868
496,1.7843570752161353896984197012765
497,1.7847628130869197948919587868403
498,1.7851677369319947773180460313831
499,1.7855718500283261079616260410503
500,1.785975155633280413527732412598
501,1.786377656984780590883371000985
502,1.786779357301464056110210252857
503,1.787180259782835296164964189972
504,1.787580367609420566851345909590
505,1.787979683942917584432660016037
506,1.788378211926345940835712217316
507,1.788775954684196090329121487173
508,1.789172915322576547493446478988
509,1.789569096929357527224413724141
510,1.789964502574317079856977839860
511,1.790359135309282952335088753269
512,1.790752998168274075472787264794
513,1.791146094167640292889505480480
514,1.791538426306201007933300369292
515,1.791929997565383122740484007274
516,1.792320810909356479671463707470
517,1.792710869285167879767117272137
518,1.793100175622875463517488326298
519,1.793488732835680235794850131883
520,1.793876543820057591864934419634
521,1.794263611455885639614420281013
522,1.794649938606574594111060653981
523,1.795035528119193681564981404237
