Eigenstate,Potential Energy
1,0.500000000015458988149343928446690006
2,0.64623093775202280790964988679624597
3,0.73633761000138499938570492020914675
4,0.79966527843162496743718679457826814
5,0.8480465763551235412065587414303420
6,0.8870659985251141351799093594886900
7,0.9197208263790957355522925295732036
8,0.9477838462936646909529095623326547
9,0.9723835572749006275151714156340673
10,0.9942802134712514149098900352217407
11,1.0140093850236726993625852377032527
12,1.0319621672367342690672978805107799
13,1.0484326901761980975631594860981248
14,1.0636476515251719559064856847486878
15,1.0777854323982895217008415275255328
16,1.090988902212152511237631256283448
17,1.103374252146833206391332703591196
18,1.115037246152072792191960755277425
19,1.126057744051258266656522119821814
20,1.136503039175358429590918452533892
21,1.146430364444620763328316230191375
22,1.155888803527311366360697702155615
23,1.164920768776239471975191262392133
24,1.173563158629179512418045822630240
25,1.181848274404797443650971160345017
26,1.189804554110238448570383223228936
27,1.197457165403702738795033972169073
28,1.204828488953485368310869437101094
29,1.211938515639928152339920074486220
30,1.218805175397244216606167147288400
31,1.225444611346237202875786803506233
32,1.231871409791037572491173392388307
33,1.238098794343330645908598540756040
34,1.244138790687004750413845374198567
35,1.250002367156952782741982603405391
36,1.255699555272281614978990502768328
37,1.261239553560099223768290465813038
38,1.266630817375630679834644648053685
39,1.271881136926565485425058911927284
40,1.276997705313717963805866105539592
41,1.281987178083332131302830489912917
42,1.286855725531369880921543246670747
43,1.291609078793634961714787897091624
44,1.296252570587491222597167605891820
45,1.300791171333364020341584230354902
46,1.305229521271077408924854387972894
47,1.309571959092603115080212719606144
48,1.313822547535210940684711351127377
49,1.317985096314347688728478910765519
50,1.32206318272144899597250806605292
51,1.32606017016642149294003405452213
52,1.32997922490618749759635085429242
53,1.33382333116823433053363099329395
54,1.33759530485054920802770624799839
55,1.34129780595584517682748511996564
56,1.34493334989790898441723032842138
57,1.34850431780070281337695241990402
58,1.35201296589605462217865763770885
59,1.35546143411301788748403855830009
60,1.35885175394095703530944991495544
61,1.36218585563885062092164569231925
62,1.36546557485500331221617382047378
63,1.36869265871411584231140431141440
64,1.37186877142234961717051415860382
65,1.37499549943548782409211304097153
66,1.37807435623044754785723224542945
67,1.38110678671613510999546817675510
68,1.38409417131588068582535268926317
69,1.38703782975037558319787287064625
70,1.38993902454710729860874852887082
71,1.39279896429968876261431666722721
72,1.39561880669817994410664782235863
73,1.39839966134944697660029438946668
74,1.40114259240478512113071742994704
75,1.40384862101040077926167465498895
76,1.40651872759489821294387275122190
77,1.40915385400661422954928452886242
78,1.41175490551247829222551626017913
79,1.41432275266902869572251815288773
80,1.41685823307527732219962967007906
81,1.41936215301626615004444041250422
82,1.42183528900539723818153419553612
83,1.42427838923292917455960054004461
84,1.42669217492740868578933752770424
85,1.42907734163624682873092903674802
86,1.43143456043113331944064123760782
87,1.43376447904352508408621436748317
88,1.43606772293502173870508478405826
89,1.43834489630705720251801313099063
90,1.44059658305399343278141581333384
91,1.44282334766338081711104330048605
92,1.44502573606686146167053425570463
93,1.44720427644492935856276461432248
94,1.44935947998851848702381237659355
95,1.45149184162016874899035827004465
96,1.45360184067731781749494794508804
97,1.45568994156008263423390098859859
98,1.45775659434572141835800938727955
99,1.45980223537181357634698359450225
100,1.46182728779004856241260284846679
101,1.46383216209238543472099809450864
102,1.46581725661121927800346227887572
103,1.46778295799508274951228535230035
104,1.46972964166130374056769141116873
105,1.47165767222694707218509035425028
106,1.47356740391927737902811842945861
107,1.47545918096690225397754081044434
108,1.47733333797267548605170917505422
109,1.47919020026937163088009296389185
110,1.48103008425908073280636184090047
111,1.48285329773720615649895630307854
112,1.48466014020189905231362905538366
113,1.48645090314970744385835652446444
114,1.48822587035816916845467070207479
115,1.48998531815603745268690526943845
116,1.49172951568177957358262500982374
117,1.49345872513095734296073550045732
118,1.49517320199305712137821092532486
119,1.49687319527830335439007416512887
120,1.49855894773496378160227974636290
121,1.50023069605761620175293019475851
122,1.50188867108682776392446382981748
123,1.50353309800066556205745456439752
124,1.50516419649843963012800112345488
125,1.50678218097704986908758666636901
126,1.50838726070029323936671393634399
127,1.50997963996146697485723431234166
128,1.51155951823958098709839769209839
129,1.51312709034948055515354352308855
130,1.51468254658616201479708397434031
131,1.51622607286354875651336079318124
132,1.51775785084797986460812728823656
133,1.51927805808665194814953568385333
134,1.52078686813124343849652847493011
135,1.52228445065693251983013255384079
136,1.52377097157701617157280365969568
137,1.52524659315332449363729313945992
138,1.52671147410261087345598435415387
139,1.52816576969909644783601598007190
140,1.52960963187333186671720902983743
141,1.53104320930753480841991148689273
142,1.53246664752755362270271746681793
143,1.53388008899159882778082813196280
144,1.53528367317587700781870500256298
145,1.53667753665725746965172578939027
146,1.53806181319309414874048315233150
147,1.53943663379831705139544898195281
148,1.54080212681990856227637900799012
149,1.54215841800886641809649261956744
150,1.54350563058975698838436904264001
151,1.54484388532795477753260752372360
152,1.54617330059465844727775025941600
153,1.54749399242977230927922335990820
154,1.54880607460273718701315144989366
155,1.55010965867138888294697235470166
156,1.55140485403892211733085866544370
157,1.55269176800903098518184756355047
158,1.55397050583929774953408565442232
159,1.5552411707928936437606630644755
160,1.5565038641886580204767099593772
161,1.5577586854496143431147436104198
162,1.5590057321499824812436265340888
163,1.5602451000607421629004487934295
164,1.5614768831938022205002776596752
165,1.5627011738448242305114041045292
166,1.5639180626347510624547790889506
167,1.5651276385500875695170531400103
168,1.5663299889819761096606565069986
169,1.5675251997641119592914873098072
170,1.5687133552095383625697786454105
171,1.5698945381463614107949085532805
172,1.5710688299524226184919173973143
173,1.5722363105889645985004044635949
174,1.5733970586333256795496469527330
175,1.5745511513106974512227865471141
176,1.5756986645249749426327437871151
177,1.5768396728887326953171165418875
178,1.5779742497523558847180406992763
179,1.5791024672323529351625740856020
180,1.5802243962388805747122437876352
181,1.5813401065025039784375979783969
182,1.5824496666002196954727785349403
183,1.5835531439807644090936811837716
184,1.5846506049892337713252621858754
185,1.5857421148910331201707857263591
186,1.5868277378951810480517681603563
187,1.5879075371769896219252487037698
188,1.5889815749001366913619973348783
189,1.5900499122381540156423315631403
190,1.5911126093953468609131572732866
191,1.5921697256271642899235552908605
192,1.5932213192600365265067390716907
193,1.5942674477106976986205548460467
194,1.5953081675050073006927432499192
195,1.5963435342962883075927511595648
196,1.5973736028831956320924483649348
197,1.5983984272271293010987142565229
198,1.5994180604692065125987405387824
199,1.6004325549468054071332082219251
200,1.6014419622096944939580059269567
201,1.6024463330357587082729888321722
202,1.6034457174463354756287342481998
203,1.6044401647211714381930332915337
204,1.6054297234130114577382388215784
205,1.6064144413618298606612271833935
206,1.6073943657087169437324660786928
207,1.6083695429094266111993687024935
208,1.6093400187475993646482279632506
209,1.6103058383476663884519046746957
210,1.6112670461874462264019955375440
211,1.6122236861104414084815048751340
212,1.6131758013378452548997385689218
213,1.6141234344802632352769607412992
214,1.6150666275491638586620246862844
215,1.6160054219680583006072066010723
216,1.6169398585834227217503931326838
217,1.6178699776753672369396345968535
218,1.6187958189680605073425440571807
219,1.6197174216399132284690115945503
220,1.6206348243335330222274145266016
221,1.6215480651654486352964169733703
222,1.6224571817356206411700593884860
223,1.6233622111367322066993462555333
224,1.6242631899632749824205183428264
225,1.6251601543204326732043663024400
226,1.6260531398327658271591734525740
227,1.6269421816527064856254889685165
228,1.6278273144688645044535839484286
229,1.6287085725141526986985420038190
230,1.6295859895737354969608494754702
231,1.6304595989928028946264881753036
232,1.6313294336841801149106310488391
233,1.6321955261357679631926426302377
234,1.6330579084178300206913414894341
235,1.6339166121901198485634826171302
236,1.6347716687088579011764799556241
237,1.6356231088335617686647875217392
238,1.6364709630337314797631637422236
239,1.6373152613953953004785229855604
240,1.6381560336275181819984796817131
241,1.6389933090682771391659434159714
242,1.6398271166912064154502357101714
243,1.6406574851112164651675513671223
244,1.6414844425904884411665101154952
245,1.6423080170442485610686395521873
246,1.6431282360464248706102182067969
247,1.6439451268351877858496457349088
248,1.6447587163183819947729364153617
249,1.6455690310788446867910594481613
250,1.6463760973796204942279978927778
251,1.6471799411690710452044679612764
252,1.6479805880858819258103229968453
253,1.6487780634639721231617012787930
254,1.6495723923373056055928878466952
255,1.6503635994446089194053126961793
256,1.6511517092339948869332109274745
257,1.6519367458674987966632657115039
258,1.6527187332255235294597348627853
259,1.6534976949112004237383494786868
260,1.6542736542546662652861326524737
261,1.6550466343172567147770648387521
262,1.6558166578956208977082753368018
263,1.6565837475257560066362661104473
264,1.6573479254869673658636797124963
265,1.6581092138057524831016046546147
266,1.6588676342596112551371138389710
267,1.6596232083807855400353564874311
268,1.6603759574599281288724710973620
269,1.6611259025497053861956369213477
270,1.6618730644683292826316075970423
271,1.6626174638030281028771300848650
272,1.6633591209134498079122686010327
273,1.6640980559350054938277827005627
274,1.6648342887821501555606825381397
275,1.6655678391516046303939769678498
276,1.6662987265255169988492111025247
277,1.6670269701745709262620833111695
278,1.6677525891610326989648849557601
279,1.6684756023417484575204733290866
280,1.6691960283710837198534326059204
281,1.6699138857038130830816101649030
282,1.6706291925979576002961519127145
283,1.6713419671175730447163027951462
284,1.6720522271354862177341063621952
285,1.6727599903359861080892262893642
286,1.6734652742174659268992123103485
287,1.6741680960950210778160016827349
288,1.6748684731029994640644389468680
289,1.6755664221975087804068433908252
290,1.6762619601588815225404654956139
291,1.6769551035940955548480269175193
292,1.6776458689391531213873845177618
293,1.6783342724614222058747199318092
294,1.6790203302619352775552137608283
295,1.6797040582776475100860079506299
296,1.6803854722836620589707748900116
297,1.6810645878954123292502747257204
298,1.6817414205708105501797745448735
299,1.6824159856123594597281043733660
300,1.6830882981692288494808070802996
301,1.6837583732392973813622162466631
302,1.6844262256711617690858584954639
303,1.6850918701661104974388231477932
304,1.6857553212800656569061906489786
305,1.6864165934254943221385116119395
306,1.6870757008732887374589166992845
307,1.6877326577546124913597664814754
308,1.6883874780627201584139209627045
309,1.6890401756547464978626140146831
310,1.6896907642534655440230143251310
311,1.6903392574490231834145814341100
312,1.6909856687006407317333669852912
313,1.6916300113382909034195138789976
314,1.6922722985643479780881272315853
315,1.6929125434552114834629628622870
316,1.6935507589629047704514786932992
317,1.6941869579166460189627193519922
318,1.6948211530243970257095410870493
319,1.6954533568743869155535610696323
320,1.6960835819366107776476339808084
321,1.6967118405643071453067177682927
322,1.6973381449954104340343437819079
323,1.6979625073539818517405212200256
324,1.6985849396516177582869911003812
325,1.6992054537888372363372627589569
326,1.6998240615564471107344233823915
327,1.7004407746368872371585039244547
328,1.7010556046055532492545149387406
329,1.7016685629321017390857989735101
330,1.7022796609817343025752984167502
331,1.7028889100164618885070373083642
332,1.7034963211963505123080247679023
333,1.7041019055807487131445102581571
334,1.7047056741294949383341315969469
335,1.7053076377041091699849031977158
336,1.7059078070689648518907476277105
337,1.7065061928924439889077900722444
338,1.7071028057480764776413721119629
339,1.7076976561156597329289091993930
340,1.7082907543823647014369912397328
341,1.7088821108438239759280626961583
342,1.7094717357052045073242584570127
343,1.7100596390822645523354493917689
344,1.7106458310023948503364083320217
345,1.7112303214056458488051315073544
346,1.7118131201457384520950810221638
347,1.7123942369910618588777775433533
348,1.7129736816256552999574347933941
349,1.7135514636501772213602886270123
350,1.7141275925828594550166486661904
351,1.7147020778604484646178013426276
352,1.7152749288391333489905417439333
353,1.7158461547954598873460724829896
354,1.7164157649272320408576834150055
355,1.7169837683544012758296623184448
356,1.7175501741199419182247445650413
357,1.7181149911907157785735364181792
358,1.7186782284583252912522181056152
359,1.7192398947399509132526275097155
360,1.7197999987791817203495509526029
361,1.7203585492468309455200514637746
362,1.7209155547417429412009520585885
363,1.7214710237915861609840798773135
364,1.7220249648536371847296322484047
365,1.7225773863155540234519684391075
366,1.7231282964961375816343878493161
367,1.7236777036460841689711497498197
368,1.7242256159487258502530314631170
369,1.7247720415207632659302875126156
370,1.7253169884129866365163679969188
371,1.7258604646109878041301951152605
372,1.7264024780358622676448989398153
373,1.7269430365449011781475437347534
374,1.7274821479322776031783490239165
375,1.7280198199297177513083584631016
376,1.7285560602071686132603436446735
377,1.7290908763734538087728316202006
378,1.7296242759769208066078392712711
379,1.7301562665060813574935302347974
380,1.7306868553902418967555848155780
381,1.7312160500001267920622638270594
382,1.7317438576484915544424166388283
383,1.7322702855907306872269089092437
384,1.7327953410254751366031167277898
385,1.7333190310951829650260637533630
386,1.7338413628867239061268626284853
387,1.7343623434319535504427126097596
388,1.7348819797082810987537588085695
389,1.7354002786392313576988229931445
390,1.7359172470949981667617943216551
391,1.7364328918929895735540463626278
392,1.7369472197983683657543425562632
393,1.7374602375245854331767830396938
394,1.7379719517339045410468998431381
395,1.7384823690379213713417247896015
396,1.7389914959980764830442635868549
397,1.7394993391261618212026973006010
398,1.7400059048848207829109614807860
399,1.7405111996880404059841710877497
400,1.7410152299016399802678790527702
401,1.7415180018437521304828495967861
402,1.7420195217852971158032955193676
403,1.7425197959504531668894357613867
404,1.7430188305171207534457484033343
405,1.7435166316173782477308597011524
406,1.7440132053379350930348540414578
407,1.7445085577205795938248768159268
408,1.7450026947626188307339598349298
409,1.7454956224173135614504982939120
410,1.7459873465943106219678018087282
411,1.7464778731600670881918208859076
412,1.7469672079382697804770331213604
413,1.7474553567102511901304605533862
414,1.7479423252153982517097413430428
415,1.7484281191515582450577969767759
416,1.7489127441754382566878207052454
417,1.7493962059030010489852999070532
418,1.7498785099098545004436817772662
419,1.7503596617316388954254909378261
420,1.7508396668644070453509180606918
421,1.7513185307650011934776587498534
422,1.7517962588514259848543327910045
423,1.7522728565032153375674422511529
424,1.7527483290617968289861919056705
425,1.7532226818308499763443153743194
426,1.7536959200766620184785094861930
427,1.7541680490284786833315433114946
428,1.7546390738788499548866280243582
429,1.7551089997839747518985587770180
430,1.7555778318640373805050668111151
431,1.7560455752035432643500575613989
432,1.7565122348516511017098264715179
433,1.7569778158224967874957124708470
434,1.7574423230955201980465856838339
435,1.7579057616157826623610285811801
436,1.7583681362942830207346245589099
437,1.7588294520082704321469402713363
438,1.7592897136015529124365194833708
439,1.7597489258848022845423293440476
440,1.7602070936358566119983250258530
441,1.7606642216000172755071769974548
442,1.7611203144903442562115054030138
443,1.7615753769879492733303737827702
444,1.7620294137422813955032938749639
445,1.7624824293714144564717082339467
446,1.7629344284623272994175104738159
447,1.7633854155711840190972113630096
448,1.7638353952236074199429254567346
449,1.7642843719149535306036064807468
450,1.7647323501105793273365851202932
451,1.7651793342461111693114847540680
452,1.7656253287277067871425030045026
453,1.7660703379323165676878955456153
454,1.7665143662079405240322763267530
455,1.7669574178738845744903636262220
456,1.7673994972210114275965755093398
457,1.7678406085119907687532153707315
458,1.7682807559815451443982704902310
459,1.7687199438366940575819386633491
460,1.7691581762569959172590061814091
461,1.7695954573947856909851594799547
462,1.7700317913754114740305762700516
463,1.7704671822974685786446117721084
464,1.7709016342330293043394411975272
465,1.7713351512278723578898313419381
466,1.7717677373017090537072783007941
467,1.7721993964484055750658339247275
468,1.7726301326362063117802583689924
469,1.7730599498079507509940283376995
470,1.7734888518812914455770616636224
471,1.7739168427489073271988777832922
472,1.7743439262787166616480434641959
473,1.7747701063140849972580230204173
474,1.7751953866740356103905520987015
475,1.7756197711534513706889305293135
476,1.7760432635232805398626427075424
477,1.7764658675307368369553824323250
478,1.7768875868994984460405477535235
479,1.7773084253299048556819872707997
480,1.7777283864991519246951198131498
481,1.7781474740614837250358156829226
482,1.7785656916483847305560996007251
483,1.7789830428687677315747465630899
484,1.7793995313091602949677760782638
485,1.7798151605338912466043497747067
486,1.7802299340852717608692672938743
487,1.7806438554837779060021928809603
488,1.7810569282282292416857826845000
489,1.7814691557959666969283664942041
490,1.7818805416430275912294995433745
491,1.7822910892043199331723869195430
492,1.7827008018937945844885090241198
493,1.7831096831046152644597660001255
494,1.7835177362093274885518436966392
495,1.7839249645600246336260091830489
496,1.7843313714885143739996259545232
497,1.7847369603064811737224227284925
498,1.7851417343056487801661894752316
499,1.7855456967579402160900282592656
500,1.785948850915637400491657596331
501,1.786351200011536144092055872414
502,1.786752747259103974438436374547
503,1.787153495852632258552534779379
504,1.787553448967390466759360312082
505,1.787952609759775424954094962169
506,1.788350981367461285184181875600
507,1.788748566909548062358866651972
508,1.789145369486708376825927311674
509,1.789541392181330633483192312083
510,1.789936638057664690435130284943
511,1.790331110161963248041223650307
512,1.790724811522622858320928826022
513,1.791117745150323170219583014013
514,1.791509914038165086965356736584
515,1.791901321161808209582469649626
516,1.792291969479605776716402338832
517,1.792681861932738175328292544269
518,1.793071001445346807464002176214
519,1.793459390924665094860336794194
520,1.793847033261149478211147363660
521,1.794233931328607206141366316596
522,1.794620087984325189909325504271
523,1.795005506069196360814158923310
