Eigenstate,Potential Energy
1,0.500000000031638245387652740104059122
2,0.64623093785763252892169370264331079
3,0.73633761031160485706836777519316534
4,0.79966527907777700631298476974651071
5,0.8480465774743899899763831273086805
6,0.8870660002570773697489823831529712
7,0.9197208288644630685126507348858967
8,0.9477838496737362340228914325099585
9,0.9723835616913215512095783694660572
10,0.9942802190658859367949603916021541
11,1.0140093919385353764131604889969686
12,1.0319621756139504911758211031727548
13,1.0484327001579804781201145561245127
14,1.0636476632538058710284532064560546
15,1.0777854460161241685264657239513093
16,1.090988917861595432897850529100630
17,1.103374269970347071881190091666450
18,1.115037266292173688316085108484502
19,1.126057766650515031461406580477916
20,1.136503064376392720387939477005661
21,1.146430392390107653942524200605820
22,1.155888834359980332986434522592055
23,1.164920802638875669346924128474008
24,1.173563195664625270302674868945526
25,1.181848314755953932973839878483022
26,1.189804597920067479903512414509500
27,1.197457212815228665417668081119956
28,1.204828540109797072857274494475801
29,1.211938570684181101002831692661576
30,1.218805234472662568517434153240639
31,1.225444674596115965012681042321197
32,1.231871477358744792515258752432801
33,1.238098866372309636914126925600718
34,1.244138867320776342771892973719635
35,1.250002448539117599166349751271764
36,1.255699641546522365676499305800055
37,1.261239644870183019118104446801465
38,1.266630913865411358504461690155058
39,1.271881238739985956203344415599851
40,1.276997812594812559728947153517954
41,1.281987290976228974898943522987649
42,1.286855844180293259592666036630234
43,1.291609203342907712440341953462036
44,1.296252701181537125278461334400143
45,1.300791308116710199217768055819879
46,1.305229664388356741584491440483440
47,1.309572108688556648670743881568782
48,1.313822703754690314987926809464108
49,1.317985259302317565825710193365025
50,1.32206335262298949627045389852235
51,1.32606034712673063736835628120258
52,1.32997940907058365582255788822416
53,1.33382352268215867507025847252403
54,1.33759550385956817413224458554061
55,1.34129801260565292811744999073646
56,1.34493356433432988414182295967204
57,1.34850454016969390130329703030284
58,1.35201319634370809706510890381877
59,1.35546167278556359512563743093181
60,1.35885200098476496215174940652179
61,1.36218611120043339324889037426223
62,1.36546583908101870092847196142188
63,1.36869293175136927331315884299258
64,1.37186905341779668739916203387361
65,1.37499579053623682322230386937763
66,1.37807465658376198572096594858690
67,1.38110709646943624976354504857799
68,1.38409449061675008299984782701238
69,1.38703815874655763046930617983123
70,1.38993936338651177663505691348186
71,1.39279931313039339678210589572076
72,1.39561916566843296733795228317875
73,1.39840003060766969827088045179355
74,1.40114297209957450216830118957017
75,1.40384901129053201349472991055243
76,1.40651912860932731477370177709603
77,1.40915426590448062801996651346963
78,1.41175532844310743156809102329579
79,1.41432318678193464245140853561579
80,1.41685867852016537884080365795658
81,1.41936260994303547557627008837248
82,1.42183575756414347527063705459762
83,1.42427886957394708367520038222853
84,1.42669266720119478628086986175649
85,1.42907784599350204695477482544743
86,1.43143507702276564402289120079652
87,1.43376500802065222840944221980197
88,1.43606826444897381070806312628587
89,1.43834545050937938189823307565596
90,1.44059715009644865569118964586362
91,1.44282392769795246843884856637150
92,1.44502632924575607500008611193008
93,1.44720488292057932390312928860047
94,1.44936009991358476640467825883732
95,1.45149247514754360001735891816454
96,1.45360248796012752496066755730979
97,1.45569060275169024988100612025540
98,1.45775726959972950889157860250380
99,1.45980292484206697979394075945567
100,1.46182799163063715292678883372972
101,1.46383288045764689593316999771393
102,1.46581798965574188501617368496819
103,1.46778370587370815964027853265099
104,1.46973040452912979292520425550798
105,1.47165845023933059622204022512995
106,1.47356819723183701211788999591490
107,1.47545998973552126815975306840723
108,1.47733416235350462403398928017416
109,1.47919104041883195140361554886654
110,1.48103094033386646548051801050536
111,1.48285416989428756621124101524048
112,1.48466102859852531332149076524981
113,1.48645180794340952367041822393281
114,1.48822679170676272160943340635326
115,1.48998625621762572453771341051350
116,1.49173047061475631419836053011464
117,1.49345969709400973125237738501716
118,1.49517419114516869956212869042662
119,1.49687420177875697289955925152673
120,1.49855997174334455455956963204022
121,1.50023173773381447311466673164097
122,1.50188973059104208441422230106173
123,1.50353417549340567699971075108490
124,1.50516529214052947829859394523472
125,1.50678329492963059269652022606106
126,1.50838839312482620528978132565200
127,1.50998079101973680723374882140986
128,1.51156068809369861141307715706439
129,1.51312827916188625392127685606794
130,1.51468375451962849497007854584141
131,1.51622730008118422873094003279071
132,1.51775909751323113441033848879129
133,1.51927932436330751927619981203169
134,1.52078815418343662839448551984695
135,1.52228575664914458749205991463881
136,1.52377229767407945783173418737292
137,1.52524793952042557404188888466996
138,1.52671284090529372385237105720658
139,1.52816715710326562278283188193565
140,1.52961104004525569086132056301025
141,1.53104463841384858096107698925213
142,1.53246809773526283507643638549785
143,1.53388156046808239468927418411870
144,1.53528516608889051174076721584185
145,1.53667905117493641896374724310980
146,1.53806334948395724958045687005600
147,1.53943819203126949340416303157465
148,1.54080370716424531834988800281485
149,1.54216002063427555828532615351410
150,1.54350725566632300807566426810684
151,1.54484553302616194005242356288550
152,1.54617497108539414105162967963682
153,1.54749568588433041969014480199872
154,1.54880779119282148309682666003399
155,1.55011139856911641906552201654356
156,1.55140661741682664996691364379959
157,1.55269355504006640499596974665834
158,1.55397231669684152882950128940516
159,1.5552430056507502995003062365711
160,1.5565057232210625929985804324684
161,1.5577605688312358906926106108929
162,1.5590076400559275906412072116827
163,1.5602470326665584760680723790660
164,1.5614788406754819775643581820841
165,1.5627031563788078292079976090554
166,1.5639200703979306341594961318172
167,1.5651296717198105720248779054542
168,1.5663320477360489368702529830227
169,1.5675272842808035679495856443941
170,1.5687154656675839162326542187077
171,1.5698966747249659411647640745909
172,1.5710709928312647042874370328120
173,1.5722384999482000620217244847844
174,1.5733992746535913010992522787845
175,1.5745533941731147015450771363347
176,1.5757009344111537335361183524973
177,1.5768419699807751486437134342155
178,1.5779765742328601198275301967199
179,1.5791048192844168750975878670613
180,1.5802267760461057712143113512134
181,1.5813425142489994559837602534458
182,1.5824521024706058145043267738036
183,1.5835556081601767486096996883299
184,1.5846530976633270310150721544106
185,1.5857446362459850422607513181448
186,1.5868302881176963590430363829922
187,1.5879101164543039944006618037155
188,1.5889841834200207260415523793278
189,1.5900525501889172438680692895079
190,1.5911152769658417677457550846577
191,1.5921724230067903580342493611351
192,1.5932240466387443010497292239048
193,1.5942702052789928732723947867488
194,1.5953109554539548250468127563881
195,1.5963463528175165160981884201427
196,1.5973764521689003947286172707700
197,1.5984013074700781959777066377124
198,1.5994209718627430206898799690388
199,1.6004354976848531293051801082996
200,1.6014449364867613905357535825679
201,1.6024493390469413613079439406358
202,1.6034487553873233740829142757961
203,1.6044432347882512862386849457933
204,1.6054328258030715063767247572282
205,1.6064175762723642628662030531819
206,1.6073975333378301333242775520015
207,1.6083727434558377056591425702596
208,1.6093432524106465920818815793663
209,1.6103091053273115389160075495934
210,1.6112703466842791278051606693400
211,1.6122270203256844272767052925988
212,1.6131791694733578217846934006145
213,1.6141268367385463961216661900872
214,1.6150700641333648508841226289219
215,1.6160088930819751552178508277030
216,1.6169433644315088912950625502177
217,1.6178735184627362495602250966578
218,1.6187993949004906471889022621115
219,1.6197210329238522426901310378791
220,1.6206384711761028547742495490966
221,1.6215517477744501877703775598467
222,1.6224609003195385609531202968011
223,1.6233659659047397026037374875691
224,1.6242669811252386680979115100475
225,1.6251639820869174385566938949928
226,1.6260570044150397379950405027167
227,1.6269460832627457118082792732926
228,1.6278312533193582767896037616657
229,1.6287125488185082948154748593962
230,1.6295900035460832564290450505474
231,1.6304636508480012635777774355088
232,1.6313335236378207204115165710486
233,1.6321996544041807176308964514922
234,1.6330620752180882564374511827008
235,1.6339208177400454831703687763076
236,1.6347759132270266333834221257376
237,1.6356273925393083054737859003144
238,1.6364752861471547948581587553669
239,1.6373196241373639242603825223677
240,1.6381604362196755235110930622418
241,1.6389977517330468401910174007888
242,1.6398315996517977370508657252279
243,1.6406620085916297069633532277716
244,1.6414890068155203936251289537487
245,1.6423126222394979911014191497790
246,1.6431328824382980407621437477769
247,1.6439498146509040073762302577464
248,1.6447634457859792148994295447174
249,1.6455738024271851104519006067611
250,1.6463809108383962405871021088061
251,1.6471847969688098392597848516822
252,1.6479854864579528253885734630657
253,1.6487830046405912816120269004773
254,1.6495773765515420704910934772221
255,1.6503686269303904675828946041863
256,1.6511567802261138961486460236437
257,1.6519418606016181542353579836284
258,1.6527238919381825781861281044332
259,1.6535028978398209454250613683320
260,1.6542789016375585022169260091114
261,1.6550519263936254294547385453135
262,1.6558219949055714712025359785227
263,1.6565891297103005758763718477350
264,1.6573533530880310002167075181250
265,1.6581146870661794005806785000272
266,1.6588731534231710785869313825246
267,1.6596287736921795936455597841168
268,1.6603815691647957753727605651027
269,1.6611315608946304050895321714820
270,1.6618787697008462898294265069388
271,1.6626232161716290120918286596031
272,1.6633649206675903341854071214976
273,1.6641039033251116995559523369711
274,1.6648401840596250393965461381052
275,1.6655737825688347593993375538627
276,1.6663047183358791842813096192283
277,1.6670330106324389433775447311080
278,1.6677586785217840512297088003318
279,1.6684817408617711856178439875862
280,1.6692022163077832558850491258121
281,1.6699201233156191503618159721488
282,1.6706354801443311591419999899954
283,1.6713483048590132846404971135745
284,1.6720586153335375964514394617114
285,1.6727664292532454377516392354572
286,1.6734717641175895079777672765405
287,1.6741746372427318810526282730201
288,1.6748750657640943609201371425148
289,1.6755730666388658224371010826994
290,1.6762686566484672701328883912485
291,1.6769618524009724557612422468331
292,1.6776526703334869395347158917285
293,1.6783411267144895008000087313641
294,1.6790272376461309350531655440330
295,1.6797110190664923244229064952098
296,1.6803924867518103671667233549438
297,1.6810716563186596978880627087501
298,1.6817485432261015152100929182776
299,1.6824231627777953197454117041867
300,1.6830955301240755129491533563969
301,1.6837656602639932682742925249896
302,1.6844335680473257675439629930695
303,1.6850992681765499756507683888158
304,1.6857627752087845310942468762769
305,1.6864241035577011808644685097899
306,1.6870832674954050228730106636483
307,1.6877402811542807378865099991808
308,1.6883951585288122893927065633233
309,1.6890479134773721806665850751860
310,1.6896985597239806041840315216857
311,1.6903471108600380782881931716522
312,1.6909935803460290842427717901442
313,1.6916379815131980964225602366129
314,1.6922803275651998099172065084629
315,1.6929206315797228851929682706607
316,1.6935589065100885854567816016556
317,1.6941951651868218453292706540673
318,1.6948294203192001220746078444411
319,1.6954616844967771709506709097741
320,1.6960919701908817459407085812622
321,1.6967202897560951448027110856369
322,1.6973466554317037128704123824370
323,1.6979710793431298196468387246960
324,1.6985935735033402853333273674789
325,1.6992141498142340192772492700685
326,1.6998328200680071075674692228703
327,1.7004495959484981705360573268989
328,1.7010644890325111793634561983429
329,1.7016775107911207066485431043449
330,1.7022886725909560426124403339346
331,1.7028979856954656155151461381611
332,1.7035054612661627775119389993696
333,1.7041111103638533344902537153658
334,1.7047149439498430038953990556709
335,1.7053169728871291154630487793399
336,1.7059172079415726128952702896384
337,1.7065156597830532287114451532073
338,1.7071123389866088911113773097016
339,1.7077072560335554273425498373650
340,1.7083004213125926548977708784258
341,1.7088918451208925741060413490357
342,1.7094815376651721592514458921659
343,1.7100695090627503859950205087091
344,1.7106557693425894887921692688006
345,1.7112403284463222676256540761321
346,1.7118231962292629188345199627333
347,1.7124043824614049553838030581034
348,1.7129838968284030282847939753499
349,1.7135617489325421940761144864983
350,1.7141379482936921706932926291429
351,1.7147125043502486693158302517365
352,1.7152854264600614845443785502240
353,1.7158567239013486272724752087038
354,1.7164264058735979147167181185951
355,1.7169944814984563828759715944321
356,1.7175609598206057311966390258674
357,1.7181258498086270384759050600960
358,1.7186891603558539939986956039695
359,1.7192509002812103890417706293538
360,1.7198110783300408066591382360450
361,1.7203697031749262546130293012315
362,1.7209267834164912230465275383759
363,1.7214823275841967625069544206349
364,1.7220363441371246063101172088307
365,1.7225888414647505736102240227555
366,1.7231398278877061308420420066657
367,1.7236893116585310035429877391650
368,1.7242373009624136272833938670283
369,1.7247838039179240702478469824928
370,1.7253288285777351406424058136956
371,1.7258723829293345322362768983474
372,1.7264144748957269645163694964854
373,1.7269551123361262841707350910025
374,1.7274943030466418363803818363493
375,1.7280320547609497974898161691352
376,1.7285683751509609252723527302252
377,1.7291032718274765160025088557124
378,1.7296367523408357357467379555187
379,1.7301688241815561656764734255884
380,1.7306994947809643181688247562444
381,1.7312287715118189991328183527341
382,1.7317566616889246347319248133371
383,1.7322831725697392371668083945164
384,1.7328083113549719732199066838796
385,1.7333320851891739568187522065136
386,1.7338545011613229242716140398147
387,1.7343755663053975415129088466938
388,1.7348952876009452801570754450112
389,1.7354136719736445370464162837554
390,1.7359307262958581863985118373863
391,1.7364464573871788814923463831573
392,1.7369608720149697142689669371020
393,1.7374739768948977063313344438155
394,1.7379857786914587124375412142795
395,1.7384962840184965933586637104147
396,1.7390054994397163089659017117119
397,1.7395134314691905614524625471564
398,1.7400200865718599968224070920357
399,1.7405254711640255304346685386545
400,1.7410295916138370965577643860748
401,1.7415324542417748708517209326927
402,1.7420340653211237109920458776314
403,1.7425344310784436361725198608151
404,1.7430335576940342385743439599462
405,1.7435314513023904922448448907716
406,1.7440281179926560684180791844260
407,1.7445235638090712739954131818473
408,1.7450177947514131163781354133032
409,1.7455108167754303557278424471066
410,1.7460026357932760591308309324366
411,1.7464932576739319166834912013818
412,1.7469826882436279020866374658141
413,1.7474709332862583568071447226000
414,1.7479579985437909216520108469627
415,1.7484438897166725997161565449799
416,1.7489286124642293803372245644078
417,1.7494121724050622725431188761834
418,1.7498945751174369112294739814021
419,1.7503758261396710145784303157774
420,1.7508559309705146746413533805030
421,1.7513348950695274332697280874619
422,1.7518127238574514249978997352523
423,1.7522894227165784230181191531074
424,1.7527649969911144019745549335681
425,1.7532394519875379969366687351254
426,1.7537127929749564653935958711041
427,1.7541850251854566369005707967332
428,1.7546561538144508640661278856419
429,1.7551261840210218872686876748358
430,1.7555951209282594752098559609936
431,1.7560629696235963449586351247687
432,1.7565297351591405110031837515037
433,1.7569954225519994012062467995571
434,1.7574600367846068376038980614012
435,1.7579235828050407057208814317934
436,1.7583860655273392133949931987246
437,1.7588474898318139004790635846029
438,1.7593078605653583814863189353579
439,1.7597671825417535024834131343405
440,1.7602254605419699834443808422362
441,1.7606826993144657059189194415871
442,1.7611389035754812096614313884084
443,1.7615940780093330459156198217453
444,1.7620482272686996067258214846051
445,1.7625013559749087609335322557467
446,1.7629534687182183212079612718287
447,1.7634045700580965112787294283211
448,1.7638546645234956515718641793679
449,1.7643037566131269037531416575804
450,1.7647518507957282266191446704122
451,1.7651989515103330464299399939520
452,1.7656450631665324830306568928603
453,1.7660901901447368748335880685316
454,1.7665343367964329916081661783389
455,1.7669775074444405589515639828150
456,1.7674197063831633914371826770957
457,1.7678609378788398301481739524658
458,1.7683012061697888804914076223425
459,1.7687405154666545642164008266886
460,1.7691788699526481279813252577552
461,1.7696162737837859581913186516851
462,1.7700527310891264151575671898200
463,1.7704882459710041903497212795911
464,1.7709228225052603476458124167589
465,1.7713564647414720173161188506608
466,1.7717891767031788734378594847006
467,1.7722209623881056752565539017168
468,1.7726518257683858881358162400711
469,1.7730817707907788607936376076027
470,1.7735108013768880833642961884697
471,1.7739389214233747933963848476011
472,1.7743661348021712273975973320547
473,1.7747924453606888688308547874851
474,1.7752178569220291965558917162439
475,1.7756423732851858564734602668382
476,1.7760659982252507701780648585231
477,1.7764887354936145136172027488481
478,1.7769105888181656417481226283152
479,1.7773315619034878485751939150106
480,1.7777516584310553571524809884210
481,1.7781708820594250904264360106660
482,1.7785892364244291917077385687343
483,1.7790067251393632747688873347598
484,1.7794233517951732233249411490451
485,1.7798391199606420167731003247336
486,1.7802540331825711669851828155028
487,1.7806680949859636149359385623940
488,1.7810813088742026836528326312006
489,1.7814936783292303155885778080577
490,1.7819052068117224574599465204485
491,1.7823158977612637267523942349017
492,1.7827257545965199479936977725496
493,1.7831347807154085337204738146463
494,1.7835429794952678040896321258941
495,1.7839503542930234375414597334252
496,1.7843569084453552968473385249601
497,1.7847626452688603159687492191036
498,1.7851675680602153928890001052703
499,1.7855716800963377856444256051914
500,1.785974984634545141927828119439
501,1.786377484912710908180477792802
502,1.786779184149422573221275931267
503,1.787180085544134214410350606169
504,1.787580192277321190049374612559
505,1.787979507510629825348009236573
506,1.788378034387027821902740662890
507,1.788775776030953238573978235855
508,1.789172735548461683573955204929
509,1.789568916027369948508148406552
510,1.789964320537402137454828272345
511,1.790358952130331522008622086048
512,1.790752813840122022328534839341
513,1.791145908683067929776389753564
514,1.791538239657932547455566938969
515,1.791929809746086122796407699235
516,1.792320621911641282429390791187
517,1.792710679101587043986059808771
518,1.793099984245923190120446261051
519,1.793488540257791786599931034664
520,1.793876350033608701377921016186
521,1.794263416453191919786708790570
522,1.794649742379890931961827534248
523,1.795035330660713629569306991565
