Eigenstate,Potential Energy
1,0.500000000021447946533695059657119087
2,0.64623093779111556599629584099106962
3,0.73633761011621663408121171999858472
4,0.79966527867080561474581297000977665
5,0.8480465767694321848894613062274496
6,0.8870659991662177011374019559356780
7,0.9197208272990769274694411773963725
8,0.9477838475448248837647357922229282
9,0.9723835589096680340285064093609370
10,0.9942802155421343117142332211155717
11,1.0140093875832338644887863490376247
12,1.0319621703375762287280814333247577
13,1.0484326938709542572976399149051968
14,1.0636476558665011181091053087441890
15,1.0777854374388724459939969222879794
16,1.090988908004689757962035491461620
17,1.103374258744043814654203849838628
18,1.115037253606693517498639872123502
19,1.126057752416043203924339762480462
20,1.136503048503078907936168867110573
21,1.146430374788065436600068051177911
22,1.155888814939286447361616290219402
23,1.164920781309569073977453335028920
24,1.173563172336706072057165115313191
25,1.181848289339382206426641075939528
26,1.189804570324762003149597279557875
27,1.197457182951065589822421142861483
28,1.204828507886608539950040425284267
29,1.211938536011753816603167880526403
30,1.218805197260736341882090074279741
31,1.225444634754382219073773063102359
32,1.231871434796845049983607760830006
33,1.238098820999833986032804388357221
34,1.244138819047261885743363397720299
35,1.250002397274046885684640494878656
36,1.255699587199321813531857432199904
37,1.261239587350221323475010372690403
38,1.266630853081997891162086715331021
39,1.271881174602369155913638712567024
40,1.276997745012178314458785937761504
41,1.281987219857698996769506447537266
42,1.286855769434923453104025931172767
43,1.291609124879686536486380465872156
44,1.296252618909383949372310677886846
45,1.300791221944473654277467216388206
46,1.305229574224813065569728026978042
47,1.309572014442408027312284381701157
48,1.313822605334563217809842538558379
49,1.317985156616761077625452433408124
50,1.32206324558047364419206627163060
51,1.32606023563564471367875261695033
52,1.32997929303923453647909549634625
53,1.33382340201876913414923017706053
54,1.33759537847227519417185445322962
55,1.34129788240250600641497269379279
56,1.34493342922328933503261785206825
57,1.34850440005862915443888250319514
58,1.35201305114039599169833460183375
59,1.35546152239768667040302008943531
60,1.35885184531990974340598254675227
61,1.36218595016608867427834431071339
62,1.36546567258457382224500961874600
63,1.36869275970011239633474422492655
64,1.37186887571891306455941725781014
65,1.37499560709680706396531118540955
66,1.37807446731076031834614914296985
67,1.38110690126972877908239027244674
68,1.38409428939709304376342387041804
69,1.38703795141359563652300753514482
70,1.38993914984677606575477656128634
71,1.39279909329030007114386788354752
72,1.39561893943428122957126173874824
73,1.39839979788564008304421771179896
74,1.40114273279572710325367206256324
75,1.40384876531080470625666972028171
76,1.40651887585953397402683356269261
77,1.40915400629030934119791872146683
78,1.41175506187011870714543369301756
79,1.41432291315555961355917739558243
80,1.41685839774570400201517830953181
81,1.41936232192565472457898969939045
82,1.42183546220887552991884866464186
83,1.42427856678568751361758284604125
84,1.42669235688470072965606934478654
85,1.42907752805339038386738899858388
86,1.43143475136351116477154508599217
87,1.43376467454658579640074277083605
88,1.43606792306428051998956442540786
89,1.43834510111809670924288777101411
90,1.44059679260246460716511609849266
91,1.44282356200500372038362630716238
92,1.44502595525742610936019390361814
93,1.44720450054029655782855579111846
94,1.44935970904462067605815129343862
95,1.45149207569301083851508819149457
96,1.45360207982297803437493801238776
97,1.45569018583471336723240107456003
98,1.45775684380555006605811274781421
99,1.45980249007314339726380160573756
100,1.46182754778925952732089441113746
101,1.46383242744593508122321418239364
102,1.46581752737564356736332012940408
103,1.46778323422699692577915771253347
104,1.46972992341740319201730281792156
105,1.47165795956400819510213796256839
106,1.47356769689415844385663076673545
107,1.47545947963654427386494074353118
108,1.47733364239410308781270132030790
109,1.47919051049969392840668673883280
110,1.48103040035549220295046771642831
111,1.48285361975698751745417600022692
112,1.48466046820241814452300924882188
113,1.48645123718842011347502722371877
114,1.48822621049262015338245920304990
115,1.48998566444386127122816925733348
116,1.49172986818070141572070449944783
117,1.49345908389879396430457212749216
118,1.49517356708771773979685763529395
119,1.49687356675779054936495249087546
120,1.49855932565737439632522403970246
121,1.50023108048114224799819335477134
122,1.50188906206975732972303445951633
123,1.50353349560138372220218267697744
124,1.50516460077542935953819344457388
125,1.50678259198889295906189195865166
126,1.50838767850567121675328022150585
127,1.50998006461916202417027653521820
128,1.51155994980847687561049273868526
129,1.51312752888856356099310861121235
130,1.51468299215452185808067628015289
131,1.51622652552037953354259685268387
132,1.51775831065258098516120397863202
133,1.51927852509842907589745010788101
134,1.52078734240970943457432861264760
135,1.52228493226170838959368094991221
136,1.52377146056783201457166634006971
137,1.52524708959002045683459177065109
138,1.52671197804513810772621174393024
139,1.52816628120751806777195860542521
140,1.52961015100782391377735854811039
141,1.53104373612838721744785158981190
142,1.53246718209517119185022297492950
143,1.53388063136650219186652838994516
144,1.53528422341870361515442913529761
145,1.53667809482876256236875291860014
146,1.53806237935415174664813897734435
147,1.53943720800992093940471085359286
148,1.54080270914317328142126900725593
149,1.54215900850502826018630943337516
150,1.54350622932017499431993470346673
151,1.54484449235411173931994522386862
152,1.54617391597816191377279743425223
153,1.54749461623235559569739848488304
154,1.54880670688626038823771501555573
155,1.55011029949783989067043447758227
156,1.55140550347041764106383756228605
157,1.55269242610781757716396466912776
158,1.55397117266775283358176385360478
159,1.5552418464135265480868144310239
160,1.5565045486641110145175892545925
161,1.5577593788426636783994210244785
162,1.5590064345235394363417521330980
163,1.5602458114778540924842104768066
164,1.5614776037176536085566706156051
165,1.5627019035387377477411465533992
166,1.5639188015621886278944403813424
167,1.5651283867746514164211939665893
168,1.5663307465674098556809958382020
169,1.5675259667743016809903393350686
170,1.5687141317085136743052814314979
171,1.5698953241982965480157255412808
172,1.5710696256216375254794173197097
173,1.5722371159399260205964757099072
174,1.5733978737306482599086290021805
175,1.5745519762191448321261968960412
176,1.5756994993094608714057319946741
177,1.5768405176143221348858570134412
178,1.5779751044842661288474802640479
179,1.5791033320359547284142290321014
180,1.5802252711796992371620428020841
181,1.5813409916462205351939413469466
182,1.5824505620126720110353070404337
183,1.5835540497279483265934924243695
184,1.5846515211373042566875760781548
185,1.5857430415063054112413894182741
186,1.5868286750441318087287154820925
187,1.5879084849262581013376812963734
188,1.5889825333165258881382039301186
189,1.5900508813886318473094084846663
190,1.5911135893470473384709575765771
191,1.5921707164473886976358741493667
192,1.5932223210162546069529823647408
193,1.5942684604705488430514125106574
194,1.5953091913363017447337439475985
195,1.5963445692670083323397760336823
196,1.5973746490614967706436524974795
197,1.5983994846813415505676085961682
198,1.5994191292678355516534291076921
199,1.6004336351585338191071594663325
200,1.6014430539033829955780294050483
201,1.6024474362804473840503432264625
202,1.6034468323112450179597118337613
203,1.6044412912757043932155975853614
204,1.6054308617267534769916768902616
205,1.6064155915045509585960627841313
206,1.6073955277503727611182335603506
207,1.6083707169201596844781991373403
208,1.6093412047977404012824745781116
209,1.6103070365077355483144375109962
210,1.6112682565281544092581319237113
211,1.6122249087026915476118331136491
212,1.6131770362527336169134954922550
213,1.6141246817890807261659788274767
214,1.6150678873233973361455790551727
215,1.6160066942793918928185158749694
216,1.6169411435037391523158007116757
217,1.6178712752767491565019808294126
218,1.6187971293227918315804838871337
219,1.6197187448204804826645175880652
220,1.6206361604126266924340160137426
221,1.6215494142159645261611310818141
222,1.6224585438306612404623431487492
223,1.6233635863496080566008223423422
224,1.6242645783675060576295371009090
225,1.6251615559897497659099865767388
226,1.6260545548411119389394433547131
227,1.6269436100742382263253413402947
228,1.6278287563779534980980868504080
229,1.6287100279853869964976271993590
230,1.6295874586819209974621064011317
231,1.6304610818129647710729567889911
232,1.6313309302915642498610224747365
233,1.6321970366058423904618008059934
234,1.6330594328262863746692253098673
235,1.6339181506128748209713498720962
236,1.6347732212220547053193684936716
237,1.6356246755135716112399592604092
238,1.6364725439571550402844989567529
239,1.6373168566390642183772984986639
240,1.6381576432684965514615719760422
241,1.6389949331838630117728016341866
242,1.6398287553589333106704590534024
243,1.6406591384088548887815088926280
244,1.6414861105960474116717489811256
245,1.6423096998359771441353648047262
246,1.6431299337028137216496952799217
247,1.6439468394349707007597725898246
248,1.6447604439405374689256927282273
249,1.6455707738025974823271892640760
250,1.6463778552844432157246207357005
251,1.6471817143346857237819868768817
252,1.6479823765922616117453069154894
253,1.6487798673913424870731118835660
254,1.6495742117661465482695401565135
255,1.6503654344556561903428296851566
256,1.6511535599082417116494407852579
257,1.6519386122861975128616028344638
258,1.6527206154701872321102775496398
259,1.6534995930636046191474708639278
260,1.6542755683968505342255455556915
261,1.6550485645315263847439799222707
262,1.6558186042645487243889648400646
263,1.6565857101321838646457273118856
264,1.6573499044140079488348235998848
265,1.6581112091367910131978690963219
266,1.6588696460783072020630738915054
267,1.6596252367710743496204382593227
268,1.6603780025060229613035055532981
269,1.6611279643360988639745914488841
270,1.6618751430797952483354611807904
271,1.6626195593246233867973811762384
272,1.6633612334305160056523897003660
273,1.6641001855331707539373158100709
274,1.6648364355473309772855515108203
275,1.6655700031700076716229782599668
276,1.6663009078836408943375348967353
277,1.6670291689592081162132579905486
278,1.6677548054592712680531652849513
279,1.6684778362409739844363903530451
280,1.6691982799589811374560114641706
281,1.6699161550683685492412241831778
282,1.6706314798274603795128850668986
283,1.6713442723006174005992272811809
284,1.6720545503609733164276624317765
285,1.6727623316931259327336221451470
286,1.6734676337957792032124099557995
287,1.6741704739843412108856073240204
288,1.6748708693934744864385616460037
289,1.6755688369796033115736686099671
290,1.6762643935233787398871584142327
291,1.6769575556320991761902207565930
292,1.6776483397420893991612175062862
293,1.6783367621210419330842673880478
294,1.6790228388703158055690472706594
295,1.6797065859271947783770081974117
296,1.6803880190671126368945632203384
297,1.6810671539058354699580527996203
298,1.6817440059016102567624852594928
299,1.6824185903572765636893646005415
300,1.6830909224223431016370724017145
301,1.6837610170950295552693781432307
302,1.6844288892242757770924692899593
303,1.6850945535117155194666197401268
304,1.6857580245136182820598493218294
305,1.6864193166428007032472923488771
306,1.6870784441705067586535878037511
307,1.6877354212282539487893083236454
308,1.6883902618096529542072327805925
309,1.6890429797721968474414379492896
310,1.6896935888390201968730514530167
311,1.6903421026006316574229746686011
312,1.6909885345166175612014068824306
313,1.6916328979173179008604115056640
314,1.6922752060054765099206201230307
315,1.6929154718578647597126445813632
316,1.6935537084268801485726177578368
317,1.6941899285421173218940910499207
318,1.6948241449119168742791149703522
319,1.6954563701248890753477180183291
320,1.6960866166514125204615658926990
321,1.6967148968451116252937095072072
322,1.6973412229443090786728025367173
323,1.6979656070734567677383465785705
324,1.6985880612445441525441857093881
325,1.6992085973584858520887907090351
326,1.6998272272064866789960278356066
327,1.7004439624713869435996056248891
328,1.7010588147289852166234476969442
329,1.7016717954493435253133320508765
330,1.7022829159980714146840391940909
331,1.7028921876375903124550183733654
332,1.7034996215283792588960358096120
333,1.7041052287302023801180456516310
334,1.7047090202033162888117828905903
335,1.7053110068096617273462346966555
336,1.7059111993140355112578921284294
337,1.7065096083852456453563746002671
338,1.7071062445972506712772026611462
339,1.7077011184302793109684977954071
340,1.7082942402719364974308881318648
341,1.7088856204182915062673556246481
342,1.7094752690749506851720176497743
343,1.7100631963581144191258933123462
344,1.7106494122956183249858114159170
345,1.7112339268279604947802051289933
346,1.7118167498093122624855922526352
347,1.7123978910085160596212308216062
348,1.7129773601100671713657134809032
349,1.7135551667150829380985958152100
350,1.7141313203422569446873054882749
351,1.7147058304288002851022172899406
352,1.7152787063313695847044898866092
353,1.7158499573269810645644334011283
354,1.7164195926139120622666309197414
355,1.7169876213125903744654894528405
356,1.7175540524664696309598465676289
357,1.7181188950428939393120736287682
358,1.7186821579339510439987506690071
359,1.7192438499573097452191045889494
360,1.7198039798570505152672413092021
361,1.7203625563044810573246441232889
362,1.7209195878989432882605935603268
363,1.7214750831686063410417130295298
364,1.7220290505712506107325445596021
365,1.7225814984950410804430311968571
366,1.7231324352592888048812423601956
367,1.7236818691152034435108537265435
368,1.7242298082466336320319847384719
369,1.7247762607707998247203121522854
370,1.7253212347390153207896708818712
371,1.7258647381373983280779188112482
372,1.7264067788875740205254230468718
373,1.7269473648473665561523889098079
374,1.7274865038114853640056237492238
375,1.7280242035121963916351296671254
376,1.7285604716199897693072472535894
377,1.7290953157442356801562872203595
378,1.7296287434338316036766386750140
379,1.7301607621778427723486720854888
380,1.7306913794061325981541298045688
381,1.7312206024899859444078930643599
382,1.7317484387427223610672885557272
383,1.7322748954203039581710928891903
384,1.7327999797219328811003161384225
385,1.7333236987906420089059149497353
386,1.7338460597138795343465112714383
387,1.7343670695240831749617418603280
388,1.7348867351992479519694700831369
389,1.7354050636634882116602653514074
390,1.7359220617875910783832032797849
391,1.7364377363895616560506070008332
392,1.7369520942351635865253934576325
393,1.7374651420384524383633537023519
394,1.7379768864623005069930921880333
395,1.7384873341189158831914689483914
396,1.7389964915703554407071829669577
397,1.7395043653290313729252768767761
398,1.7400109618582112866912612499055
399,1.7405162875725104190707034343429
400,1.7410203488383802769858968991225
401,1.7415231519745897486332271423832
402,1.7420247032526994318816465441026
403,1.7425250088975320003760947852960
404,1.7430240750876365004187751851528
405,1.7435219079557440440575481463401
406,1.7440185135892210073991407999159
407,1.7445138980305168508508857906682
408,1.7450080672776040644683956572830
409,1.7455010272844130994691503724325
410,1.7459927839612648003741205201510
411,1.7464833431752945977780259452405
412,1.7469727107508720443210941128600
413,1.7474608924700167729049110391789
414,1.7479478940728073009808196354205
415,1.7484337212577869648565985428787
416,1.7489183796823634136375596995512
417,1.7494018749632045112718270067823
418,1.7498842126766278099191650996684
419,1.7503653983589878731380742073275
420,1.7508454375070564307962180953875
421,1.7513243355783993178706562837621
422,1.7518020979917494787236295054526
423,1.7522787301273738729764623563637
424,1.7527542373274378966891443783713
425,1.7532286248963636981880008754935
426,1.7537018981011859953638189567975
427,1.7541740621719028790520374350254
428,1.7546451223018216161645738762921
429,1.7551150836479033649420549964838
430,1.7555839513310996644134400612797
431,1.7560517304366882016976227870147
432,1.7565184260146050066415790213675
433,1.7569840430797684116723106741100
434,1.7574485866124058747788261918611
435,1.7579120615583714892779237186081
436,1.7583744728294620813324874160368
437,1.7588358253037300565706658352021
438,1.7592961238257919778474390336708
439,1.7597553732071335554312508870436
440,1.7602135782264121208054551107225
441,1.7606707436297537439147731942131
442,1.7611268741310485574786875067805
443,1.7615819744122439360434200355907
444,1.7620360491236301491185167617176
445,1.7624891028841278190320143650265
446,1.7629411402815682078276679442425
447,1.7633921658729735023467261383029
448,1.7638421841848303156697555902792
449,1.7642911997133642453957423183330
450,1.7647392169248076411729246423723
451,1.7651862402556680845472826058761
452,1.7656322741129904224492937057003
453,1.7660773228746180973620172529042
454,1.7665213908894501630900271984524
455,1.7669644824776976099729002199620
456,1.7674066019311342965114826760014
457,1.7678477535133471830848582802276
458,1.7682879414599822636227257741436
459,1.7687271699789887091278570339791
460,1.7691654432508608653594979704438
461,1.7696027654288759543713284194176
462,1.7700391406393306929216729628573
463,1.7704745729817754314946233684972
464,1.7709090665292439748049953741582
465,1.7713426253284830524889765374263
466,1.7717752534001785706442409972646
467,1.7722069547391779247010831790410
468,1.7726377333147133892314832666619
469,1.7730675930706190613575047801001
470,1.7734965379255488822654402931943
471,1.7739245717731900038957819738410
472,1.7743516984824757983858017558289
473,1.7747779218977938611299514724676
474,1.7752032458391965114152448776691
475,1.7756276741026027133490319499117
476,1.7760512104600039308465381476267
477,1.7764738586596642496359869857217
478,1.7768956224263194422310619514683
479,1.7773165054613738652145026758720
480,1.7777365114430955833736770342676
481,1.7781556440268082715218537600780
482,1.7785739068450834627499798105080
483,1.7789913035079285230635827893197
484,1.7794078376029731721157213083450
485,1.7798235126956560268678971092482
486,1.7802383323294057529266926452844
487,1.7806523000258236722924851073308
488,1.7810654192848624239593886925325
489,1.7814776935850039054181982271378
490,1.7818891263834343580576543137713
491,1.7822997211162187306149757702853
492,1.7827094811984729087276256135103
493,1.7831184100245337854587395099100
494,1.7835265109681282666971269818557
495,1.7839337873825394037858384588703
496,1.7843402426007728976573358612676
497,1.7847458799357196598492973205864
498,1.7851507026803183755061477916685
499,1.7855547141077155655362981570282
500,1.785957917471425278242997054972
501,1.786360316005484156283788067447
502,1.786761912924609333951234735373
503,1.787162711424350632710660106369
504,1.787562714681244898636657570357
505,1.787961925852965329015687031829
506,1.788360348078471517998957337937
507,1.788757984478158069126426652117
508,1.789154838154001414470749612836
509,1.789550912189703071076467926916
510,1.789946209650835387713835170940
511,1.790340733584983012802833910399
512,1.790734487021883983480690377953
513,1.791127472973569051326836267910
514,1.791519694434499920983996505980
515,1.791911154381706775750167745466
516,1.792301855774923300306485944731
517,1.792691801556720275147849423952
518,1.793080994652639527931063620418
519,1.793469437971325023512823401271
520,1.793857134404653949510557008062
521,1.794244086827864592443550848023
522,1.794630298099685280485191660040
523,1.795015771062460829813169662192
