Eigenstate,Potential Energy
1,0.500000000017946524550499567147588730
2,0.64623093776826012796896701586782086
3,0.73633761004908072009755769699248738
4,0.79966527853096943146241455960492298
5,0.8480465765272078729847287971327131
6,0.8870659987913981922353624719863423
7,0.9197208267612119735109529704757263
8,0.9477838468133362748433438034929656
9,0.9723835579539032686563579681276088
10,0.9942802143313939233302741662197896
11,1.0140093860867863465850193396282353
12,1.0319621685246666404734946594550822
13,1.0484326917108093888539152038306618
14,1.0636476533283326760953370333117153
15,1.0777854344918790445957806177696458
16,1.090988904618058159855055429770588
17,1.103374254886949683990312494420575
18,1.115037249248301845716248055928141
19,1.126057747525508510228213260439012
20,1.136503043049545280866787798789703
21,1.146430368740666461140000022937343
22,1.155888808267145048014441051433751
23,1.164920773981797295094582644867674
24,1.173563164322404810563873305238278
25,1.181848280607640907920561459708398
26,1.189804560844658329441489641965229
27,1.197457172691665063937087604780355
28,1.204828496816964173132621965924560
29,1.211938524100905720804070463731753
30,1.218805184477711330403211535266871
31,1.225444621068193397468574265408923
32,1.231871420176491398858110181961181
33,1.238098805414299937054826908487459
34,1.244138802465516891905623628662370
35,1.250002379665044986663974087613208
36,1.255699568532001196827405881993582
37,1.261239567593503881882293114590898
38,1.266630832204788777039632503444528
39,1.271881152573556332618512434784465
40,1.276997721800632105262508599807782
41,1.281987195432271631513229815273227
42,1.286855743764448612808830145122277
43,1.291609097932978896099244895903641
44,1.296252590655238718799154064741054
45,1.300791192351666117830448172655892
46,1.305229543262098119935816392566265
47,1.309571982078519718133208786890936
48,1.313822571538214274949287886716757
49,1.317985121356642449187361327143753
50,1.32206320882525402934370599264075
51,1.32606019735397009432351116983567
52,1.32997925319972770781655527502952
53,1.33382336059002923415369659919852
54,1.33759533542287723201502836048979
55,1.34129783770100038985372849113930
56,1.34493338283820139677873559944093
57,1.34850435195845867752403116818900
58,1.35201300129361673384447375646675
59,1.35546147077274588740568925044030
60,1.35885179188522771153554931767454
61,1.36218589489005821170219580091723
62,1.36546561543555980947181238758126
63,1.36869270064645129568027091955046
64,1.37186881472891243863199481541984
65,1.37499554413874509316763783240972
66,1.37807440235288531738909809674905
67,1.38110683428025871250538481401418
68,1.38409422034421504045505036172640
69,1.38703788026546550323469504386859
70,1.38993907657151779959965741627780
71,1.39279901785600537107222383508794
72,1.39561886180900900681339011657860
73,1.39839971803741597051096755227321
74,1.40114265069254296388442069270971
75,1.40384868092061814030403848374539
76,1.40651878915026782526702601961236
77,1.40915391722985120205518518169234
78,1.41175497042632042271880225437977
79,1.41432281929623678453926698932622
80,1.41685830143863548647861656816782
81,1.41936222313858213864766147641953
82,1.42183536090950274727095272316449
83,1.42427846294168016383722408920409
84,1.42669225046368569540788721502785
85,1.42907741902295529688250414813393
86,1.43143463969120390063091441078936
87,1.43376456019991396810181232963293
88,1.43606780601071097028192919771381
89,1.43834498132505500171850377434610
90,1.44059667003733451608843703362928
91,1.44282343663512671924688618980609
92,1.44502582705010085814890469224801
93,1.44720436946277838898214751860319
94,1.44935957506412107911053919317427
95,1.45149193877669694339981525637460
96,1.45360193993797209337943141161321
97,1.45569004294809223558571330232485
98,1.45775669788434468113644517578109
99,1.45980234108433825639794442073702
100,1.46182739569979216418963423322434
101,1.46383227222269554081661942749225
102,1.46581736898547387949971385056540
103,1.46778307263669057715948625084157
104,1.46972975859370459680047142716636
105,1.47165779147361216398480327436545
106,1.47356752550370965164081900384098
107,1.47545930491263672549676103985997
108,1.47733346430327958287532315543413
109,1.47919032900844552405062316630475
110,1.48103021543025767524413300092854
111,1.48285343136415282113756667752923
112,1.48466027630831587114724969081568
113,1.48645104175932894791043683300027
114,1.48822601149476432867768094872462
115,1.48998546184341002180279766651291
116,1.49172966194376842887375589347136
117,1.49345887399143683002103804162754
118,1.49517335347593739883446564887598
119,1.49687334940753073960318030661655
120,1.49855910453452109735847937827642
121,1.50023085555152312395500241547685
122,1.50188883329914117029294461693411
123,1.50353326295547988185200391776152
124,1.50516436421988719489908923745381
125,1.50678235148930126446873081369301
126,1.50838743402755765791753872617041
127,1.50997981612799256996769905232387
128,1.51155969726965522796458418824865
129,1.51312727226743058283544638835994
130,1.51468273141635499936890789502084
131,1.51622626063039225531688871747042
132,1.51775804157592218161977550150502
133,1.51927825180018249447175491954773
134,1.52078706485489309398429624565645
135,1.52228465041527399586332581718392
136,1.52377117439466437498527512824645
137,1.52524679905493689181357366307192
138,1.52671168311288786060657341823625
139,1.52816598184278171246226423049862
140,1.52960984717521276027689183041780
141,1.53104342779244271520462081143469
142,1.53246686922036433093828153179883
143,1.53388031391723290196201297119623
144,1.53528390135930016228952796044756
145,1.53667776812348094344275678898474
146,1.53806204796717508167459094532264
147,1.53943687190535886147349925763556
148,1.54080236828506132435445199499215
149,1.54215866285732724386627061656881
150,1.54350587884677040766838706663952
151,1.54484413701881312090612668583842
152,1.54617355574470223002909689315013
153,1.54749425106439061672052622407155
154,1.54880633674736806115336307976296
155,1.55010992435151971053928189756844
156,1.55140512328009001930657090708876
157,1.55269204083682320748288873155160
158,1.55397078227935205535640565574764
159,1.5552414508708987072208119869119
160,1.5565041479303538217139853607205
161,1.5577589728807925648413614397610
162,1.5590060232964869067554316198468
163,1.5602453949484690755607656707949
164,1.5614771818487008047095765308131
165,1.5627014762928969741755020159491
166,1.5639183689020541609644289324941
167,1.5651279486627313312517858797960
168,1.5663303029661253630298637085730
169,1.5675255176459864613257639354599
170,1.5687136770154132090756811443696
171,1.5698948639025674480863046379921
172,1.5710691596853468567112207714123
173,1.5722366443250506265430464533227
174,1.5733973963990740816052202446518
175,1.5745514931326662249464034206850
176,1.5756990104297799189601814205473
177,1.5768400229030479599374445275795
178,1.5779746039029142012175176972393
179,1.5791028255459461698536373156523
180,1.5802247587423601231615464199308
181,1.5813404732227811937071073877941
182,1.5824500375642663180880501325362
183,1.5835535192156129987534953008460
184,1.5846509845219781403669221841055
185,1.5857424987488287688054448802193
186,1.5868281261052456013842339849979
187,1.5879079297666032687728414705685
188,1.5889819718966426248870828670487
189,1.5900503136689588758132884102331
190,1.5911130152879211788085876834900
191,1.5921701360090429338946836455000
192,1.5932217341588191502129967893101
193,1.5942678671540491909534757256610
194,1.5953085915206582376033888294408
195,1.5963439629120354058379538480147
196,1.5973740361269022049152926818036
197,1.5983988651267257158587691985467
198,1.5994185030526906503676303596505
199,1.6004330022422431242712391471593
200,1.6014424142452200856876678355251
201,1.6024467898395753742652188668276
202,1.6034461790467157876179951687232
203,1.6044406311464578096372801386451
204,1.6054301946916166155400655473100
205,1.6064149175222373189664599967544
206,1.6073948467794814798226953650203
207,1.6083700289191747434949476359241
208,1.6093405097250298328384005683641
209,1.6103063343215506357688523155612
210,1.6112675471866288840556664425222
211,1.6122241921638407822722225344319
212,1.6131763124744538140257273080649
213,1.6141239507291481033539754718301
214,1.6150671489394673069724663028242
215,1.6160059485289982435961643514698
216,1.6169403903442932147861868460781
217,1.6178705146655389763565621908238
218,1.6187963612169813327836617102819
219,1.6197179691771086275468660759800
220,1.6206353771886066375208077281903
221,1.6215486233680827737013867648260
222,1.6224577453155767856233802227515
223,1.6233627801238515302930005463126
224,1.6242637643874788649256900205676
225,1.6251607342117232200236549878842
226,1.6260537252212263907258793975850
227,1.6269427725685021892688755990639
228,1.6278279109422427687492498822554
229,1.6287091745754437703230858763172
230,1.6295865972533529800702242365033
231,1.6304602123212442847774963865095
232,1.6313300526920273355452230396415
233,1.6321961508536879047047566120962
234,1.6330585388765750820962175720368
235,1.6339172484205284817894772127166
236,1.6347723107418551579995814033138
237,1.6356237567001598503061661317267
238,1.6364716167650302891702473246418
239,1.6373159210225829973101916496786
240,1.6381566991818717403351858890447
241,1.6389939805811629079656726484166
242,1.6398277941940806817713430998333
243,1.6406581686356260201797706254543
244,1.6414851321680711489714463231177
245,1.6423087127067339303512947617124
246,1.6431289378256346291432747610404
247,1.6439458347630364578723111786640
248,1.6447594304268774812663521314766
249,1.6455697514000888486724918350518
250,1.6463768239458097384860684273862
251,1.6471806740124969139979888541941
252,1.6479813272389316885533267676337
253,1.6487788089591293716174987043062
254,1.6495731442071508520002180826968
255,1.6503643577218201976596377143403
256,1.6511524739513483568465648788889
257,1.6519375170578693513261360362989
258,1.6527195109218854057286481357484
259,1.6534984791466278158730194261423
260,1.6542744450623339417602362733851
261,1.6550474317304406382868008592777
262,1.6558174619476988484031524688005
263,1.6565845582502082085966639929333
264,1.6573487429173771168499736863433
265,1.6581100379758067875997547872482
266,1.6588684652031014607259060230640
267,1.6596240461316079771005798945764
268,1.6603768020520847536935637817525
269,1.6611267540173044274305214850911
270,1.6618739228455858912256103797543
271,1.6626183291242650054220570466612
272,1.6633599932130979634820046641573
273,1.6640989352476047543168326399672
274,1.6648351751423499295524615887074
275,1.6655687325941645505856310489351
276,1.6662996270853075930601866563618
277,1.6670278778865742920537363394219
278,1.6677535040603431818986172894154
279,1.6684765244635733330822164834091
280,1.6691969577507438790723896038062
281,1.6699148223767437218714473043718
282,1.6706301365997089125470086173154
283,1.6713429184838109191662736789718
284,1.6720531859019929386490163215804
285,1.6727609565386610597797268791466
286,1.6734662478923263021045575379568
287,1.6741690772782025899839440799655
288,1.6748694618307570635570396319356
289,1.6755674185062173746621566473107
290,1.6762629640850367002203313634798
291,1.6769561151743143140023811994942
292,1.6776468882101746016658642188519
293,1.6783352994601084248163877896862
294,1.6790213650252718709876743738626
295,1.6797051008427444766653168453847
296,1.6803865226877545088937716723634
297,1.6810656461758612371713486669237
298,1.6817424867651035123641386309648
299,1.6824170597581114554740875989652
300,1.6830893803041830068438872798014
301,1.6837594634013257472136404274001
302,1.6844273238982660835392330007408
303,1.6850929764964229726779430946016
304,1.6857564357518497604480504347190
305,1.6864177160771455645654072562120
306,1.6870768317433354646541114418669
307,1.6877337968817166812810384921048
308,1.6883886254856782224400622550878
309,1.6890413314124900867479677893719
310,1.6896919283850623584953588944813
311,1.6903404299936777894522209641204
312,1.6909868496976953805573522463542
313,1.6916312008272263562372874577336
314,1.6922734965847843356252159531716
315,1.6929137500469090203195526522371
316,1.6935519741657647743211289229594
317,1.6941881817707116347506156994698
318,1.6948223855698541045881722217602
319,1.6954545981515648689939340557102
320,1.6960848319859834364643690580079
321,1.6967130994264936237558114745809
322,1.6973394127111759990026533540348
323,1.6979637839642387970663564901985
324,1.6985862251974262842515610809071
325,1.6992067483114063343669045832057
326,1.6998253650971354533541156323185
327,1.7004420872372040732372325416926
328,1.7010569263071593045836101689821
329,1.7016698937768101223316772528067
330,1.7022810010115114166482350208954
331,1.7028902592734283473880353845851
332,1.7034976797227820633763319934673
333,1.7041032734190771650484825288972
334,1.7047070513223090944485842285897
335,1.7053090242941557674984680171792
336,1.7059092030991495065671367124908
337,1.7065075984058321455651064373205
338,1.7071042207878943663942659261906
339,1.7076990807252953312383897152334
340,1.7082921886053687020132783064314
341,1.7088835547239107605324276660434
342,1.7094731892862531265157184463849
343,1.7100611024083197112090912925439
344,1.7106473041176679003001132178335
345,1.7112318043545157854420798527147
346,1.7118146129727529191598182644919
347,1.7123957397409381584739395685189
348,1.7129751943432814089456810672427
349,1.7135529863806128140454046639481
350,1.7141291253713369321633089110779
351,1.7147036207523739888445887592279
352,1.7152764818800878865926898126822
353,1.7158477180312002565975346629610
354,1.7164173384036919668435560214516
355,1.7169853521176924518606180597300
356,1.7175517682163550738854106434340
357,1.7181165956667217544573143814186
358,1.7186798433605761204354328106330
359,1.7192415201152809095613249622185
360,1.7198016346746085734728573998699
361,1.7203601957095568230242908215746
362,1.7209172118191555974993774853263
363,1.7214726915312600533174221539737
364,1.7220266433033345962131585277048
365,1.7225790755232261932453675513051
366,1.7231299965099258422911238251498
367,1.7236794145143210910244441913006
368,1.7242273377199363940963375563548
369,1.7247737742436659410502839846679
370,1.7253187321364946681373573688888
371,1.7258622193842103073291025284087
372,1.7264042439081054289966048850371
373,1.7269448135656694449608921116937
374,1.7274839361512748803836966088840
375,1.7280216193968486060579582257230
376,1.7285578709725394873035510459222
377,1.7290926984873742386685589992950
378,1.7296261094899046518374068590471
379,1.7301581114688480365372604705991
380,1.7306887118537176311975455918163
381,1.7312179180154458587877703191797
382,1.7317457372669975459936180929993
383,1.7322721768639777803823135585143
384,1.7327972440052293692476547846614
385,1.7333209458334235213787069261088
386,1.7338432894356444103934205848241
387,1.7343642818439633689622533866659
388,1.7348839300360066507074307766301
389,1.7354022409355174344507432584506
390,1.7359192214129092599020061611883
391,1.7364348782858112117145233722258
392,1.7369492183196084602694322621709
393,1.7374622482279756326600477800473
394,1.7379739746734015949573568501463
395,1.7384844042677085026126536840329
396,1.7389935435725647698487700500840
397,1.7395013990999915879308877348958
398,1.7400079773128630004339819438807
399,1.7405132846253981012813417724325
400,1.7410173274036496554938430463210
401,1.7415201119659851915520799280724
402,1.7420216445835613105702873750445
403,1.7425219314807940330037188203465
404,1.7430209788358230759611548860972
405,1.7435187927809675265495795510135
406,1.7440153794031790202676338785198
407,1.7445107447444895411489665878801
408,1.7450048948024513468316852266741
409,1.7454978355305718796120165477867
410,1.7459895728387461779419370388225
411,1.7464801125936810483703388993455
412,1.7469694606193145804980246832207
413,1.7474576226972320839873169930342
414,1.7479446045670748714532415688187
415,1.7484304119269461711797169118887
416,1.7489150504338105992747413049899
417,1.7493985257038900397328611100989
418,1.7498808433130530956217584257572
419,1.7503620087972023898860348617061
420,1.7508420276526546976708619791850
421,1.7513209053365178623302193095131
422,1.7517986472670637767028933307807
423,1.7522752588240952657770935156190
424,1.7527507453493104844490074518160
425,1.7532251121466612097151572503703
426,1.7536983644827086341192831717795
427,1.7541705075869741450625569813671
428,1.7546415466522851036448315993024
429,1.7551114868351195354031646485240
430,1.7555803332559425950324125398122
431,1.7560480909995423087199761350492
432,1.7565147651153617435872630731816
433,1.7569803606178229421121082731069
434,1.7574448824866537194465183844519
435,1.7579083356672051472806869415778
436,1.7583707250707676252196834119875
437,1.7588320555748837010185025982164
438,1.7592923320236566217148262030338
439,1.7597515592280552969387107011181
440,1.7602097419662167455876091001449
441,1.7606668849837431856929874803393
442,1.7611229929939973310986592661504
443,1.7615780706783955426194625344978
444,1.7620321226866934530236069605425
445,1.7624851536372733964696815729458
446,1.7629371681174246667193893935786
447,1.7633881706836237732654316860296
448,1.7638381658618079135469125825893
449,1.7642871581476495017271787662809
450,1.7647351520068239064449000680191
451,1.7651821518752779006021555443307
452,1.7656281621594916645061438672007
453,1.7660731872367400854052051038819
454,1.7665172314553497423356299473920
455,1.7669602991349552001192689146433
456,1.7674023945667499094775000645766
457,1.7678435220137364089359503059487
458,1.7682836857109722243817524901071
459,1.7687228898658139801642872280670
460,1.7691611386581593640474528192778
461,1.7695984362406847957032318258878
462,1.7700347867390820117610579401756
463,1.7704701942522921711482870768009
464,1.7709046628527356415908868282838
465,1.7713381965865414359731039946205
466,1.7717707994737734292157942809463
467,1.7722024755086526361517825039442
468,1.7726332286597805660010262363806
469,1.7730630628703561301039927414101
470,1.7734919820583936274148530050049
471,1.7739199901169360748217354158918
472,1.7743470909142681798664033521586
473,1.7747732882941243067248886180325
474,1.7751985860758989394021862342832
475,1.7756229880548485648542661299114
476,1.7760464980022974898010141215950
477,1.7764691196658379241838022210535
478,1.7768908567695290072127828742429
479,1.7773117130140936653441798506325
480,1.7777316920771136967235949311719
481,1.7781507976132216329250321013668
482,1.7785690332542929467260249545727
483,1.7789864026096339858688291570029
484,1.7794029092661684525144142061903
485,1.7798185567886239052164702050801
486,1.7802333487197128681586697207999
487,1.7806472885803153963866697471925
488,1.7810603798696576934693568724093
489,1.7814726260654900096365218553700
490,1.7818840306242616833832948161593
491,1.7822945969812954606871986115846
492,1.7827043285509596798851890482287
493,1.7831132287268382970776692398978
494,1.7835213008818998459554663290746
495,1.7839285483686635243988638381568
496,1.7843349745193656521208234151463
497,1.7847405826461221847238784712692
498,1.7851453760410912292698499032497
499,1.7855493579766330585271982461599
500,1.785952531705469754208373257906
501,1.786354900460840225046257773834
502,1.786756467456658054697555241158
503,1.787157235887663647401732675780
504,1.787557208929578515033112162862
505,1.787956389739254552805891779240
506,1.788354781454824033511901687652
507,1.788752387195848168104598194650
508,1.789149210063463872372727641189
509,1.789545253140526970372457951829
510,1.789940519491757887631369156128
511,1.790335012163883064973036570639
512,1.790728734185775992929487041156
513,1.791121688568596482248618744799
514,1.791513878305928846728900632294
515,1.791905306373919372449354413284
516,1.792295975731411283552504146235
517,1.792685889320078279141266363676
518,1.793075050064558426496457476883
519,1.793463460872585192381194682018
520,1.793851124635118469256902266128
521,1.794238044226472391462095934494
522,1.794624222504444217376967094996
523,1.795009662310440714553018570194
