Eigenstate,Potential Energy
1,0.500000000030515374476152244740177461
2,0.64623093785030300831661482647828428
3,0.73633761029007496134641717794910417
4,0.79966527903293263377940198029678356
5,0.8480465773967102316603550381975058
6,0.8870660001368746082402939870549122
7,0.9197208286919714456989656299193324
8,0.9477838494391485481344147596292430
9,0.9723835613848064161314647885558072
10,0.9942802186775964931591265662377375
11,1.0140093914586140256503832579162615
12,1.0319621750325316029254500810294241
13,1.0484326994651919943246789398179596
14,1.0636476624397702750651114189666682
15,1.0777854450709590712733037246496015
16,1.090988916775413918173152679868377
17,1.103374268733257885352989451159330
18,1.115037264894281321433548979951582
19,1.126057765081919733065499437909809
20,1.136503062627190457298299997489432
21,1.146430390450390034771001088181694
22,1.155888832219834504934199949360231
23,1.164920800288384194804457318501261
24,1.173563193093865988107963753742591
25,1.181848311954999807844258958902256
26,1.189804594878986442625704257704561
27,1.197457209524083445721702442003544
28,1.204828536558645026429080129829531
29,1.211938566863074031745100770472095
30,1.218805230371646546915659602066652
31,1.225444670205231143273718328219963
32,1.231871472668025217002938596756512
33,1.238098861371783058297471567465488
34,1.244138862000464024217551768314835
35,1.250002442889034122841639461723624
36,1.255699635556675437778305303851841
37,1.261239638530573273602494299964135
38,1.266630907166032159659709299092549
39,1.271881231670823200183283142638077
40,1.276997805145844475142763226794197
41,1.281987283137425922536630648692817
42,1.286855835941617531351559065058776
43,1.291609194694313329506809588138376
44,1.296252692112969635609471420217946
45,1.300791298618106474359266746808990
46,1.305229654449644772857046178517849
47,1.309572098299655342747469055639076
48,1.313822692905509288885128524796554
49,1.317985247982756941322820850424090
50,1.32206334082293969377253334338428
51,1.32606033483607216922164877289272
52,1.32997939627918691909117744377605
53,1.33382350937988374378003530806430
54,1.33759549003626459098597557873125
55,1.34129799825115949568426802183477
56,1.34493354943847445552206563977040
57,1.34850452472229317026908842153374
58,1.35201318033456738767586056601983
59,1.35546165620447665081677714479927
60,1.35885198382151373429420884190918
61,1.36218609344478782917618496838197
62,1.36546582072273653142759953357290
63,1.36869291278019579957499294639765
64,1.37186903382346456742353303810728
65,1.37499577030846585767253659778526
66,1.37807463571225890322223380193744
67,1.38110707494389449163906981889269
68,1.38409446842684958743863562220499
69,1.38703813588196461611884707722513
70,1.38993933983687852561213513775030
71,1.39279928888535803709463584852351
72,1.39561914071761925471054558161224
73,1.39840000494068679736662467487086
74,1.40114294570601676719907487313819
75,1.40384898415997876821218327059563
76,1.40651910073134263183288388360499
77,1.40915423726861310770742587495955
78,1.41175529903888997988614047650024
79,1.41432315659888424855010908243794
80,1.41685864754778289178910517564945
81,1.41936257817080538046362357375173
82,1.42183572498153366863027806469270
83,1.42427883617040864822020420071488
84,1.42669263296616176494397465858661
85,1.42907781091639121622287363097316
86,1.43143504109297628655698315437352
87,1.43376497122756590494076729787458
88,1.43606822678195413120103534943745
89,1.43834541195777177597071481633244
90,1.44059711064958014228255222688469
91,1.44282388734513142471619456887794
92,1.44502628797627200449292203250005
93,1.44720484072370262385669641670483
94,1.44936005677856649434207344996783
95,1.45149243106361523950051205267834
96,1.45360244291650075054013300739034
97,1.45569055673755669122448558629048
98,1.45775722260426051408100748641233
99,1.45980287685441337778088269945637
100,1.46182794263992901513582242949120
101,1.46383283045299329700286692953082
102,1.46581793862623066266721911858452
103,1.46778365380840567366016797073989
104,1.46973035141708068325891900673095
105,1.47165839606955754015800288155652
106,1.47356814199334048055844748580567
107,1.47545993341727928096533414977924
108,1.47733410494447250443004332299417
109,1.47919098190794207943932968301590
110,1.48103088071002803052826291147357
111,1.48285410914638631849559977495942
112,1.48466096671542331446666699448843
113,1.48645174491394489625472592846015
114,1.48822672751974939771549883977492
115,1.48998619086185319328696163612081
116,1.49173040407898936825824301171725
117,1.49345962936698821230475287238628
118,1.49517412221560724272110786000777
119,1.49687413163534475006706099384247
120,1.49855990037474501670673962008349
121,1.50023166512866509147723414291332
122,1.50188965673795409058979342965261
123,1.50353410038096380193490230505091
124,1.50516521575729169015384095229222
125,1.50678321726412783357628291337140
126,1.50838831416556212682584425937835
127,1.50998071075518750500914213097430
128,1.51156060651231235821410693330397
129,1.51312819625208323180506136962643
130,1.51468367026980052613491569113086
131,1.51622721447969450517669112892791
132,1.51775901054841394637594929430449
133,1.51927923602346798244141605059033
134,1.52078806445685040983267442734852
135,1.52228566552405763036098812293064
136,1.52377220513870770478902856781882
137,1.52524784556295468937187350594190
138,1.52671274551387881429079535842801
139,1.52816706026603095702594569657393
140,1.52961094175029441774568254491741
141,1.53104453864922244630032281920873
142,1.53246799648900189714115156820277
143,1.53388145772818473831603552613014
144,1.53528506184332196105629806886102
145,1.53667894541163024871002833652432
146,1.53806324219081389502650848482890
147,1.53943808319615625883013053532589
148,1.54080359677499608408897095518972
149,1.54215990867869048630891022293860
150,1.54350714213216824610699078479857
151,1.54484541790116932419395812286264
152,1.54617485435726089691119994747371
153,1.54749556754071886199081365854488
154,1.54880767122135871375530959936982
155,1.55011127695739402372389245802644
156,1.55140649415240039296219689047868
157,1.55269343011045592275205080714203
158,1.55397219008953002165579018918632
159,1.5552428773531842217813285081036
160,1.5565055932206513417586076429456
161,1.5577604371153514925193438491574
162,1.5590075066119043869523211244297
163,1.5602468974816928067044145345930
164,1.5614787037370318626933244231597
165,1.5627030176739926495205741336836
166,1.5639199299139308093443414702192
167,1.5651295294437672375025569063532
168,1.5663319036550636187707301278773
169,1.5675271383819378563159151550495
170,1.5687153179378591364335895639868
171,1.5698965251513628234989808114064
172,1.5710708414007230517618399932109
173,1.5722383466476184162861695198774
174,1.5733991194698266065199537563992
175,1.5745532370929819673986634636973
176,1.5757007754214256943063235491414
177,1.5768418090681819224024464855259
178,1.5779764113840888646818725294679
179,1.5791046544861114436842435457399
180,1.5802266092848663632227634109579
181,1.5813423455113822686892663022924
182,1.5824519317431226912917119915453
183,1.5835554354292948254688089903285
184,1.5846529229154683809884918174424
185,1.5857444594675263178243149173983
186,1.5868301092949684323993815607989
187,1.5879099355735915956660471486492
188,1.5889840004675620793058530335907
189,1.5900523651509037011077887987032
190,1.5911150898284174405696745967361
191,1.5921722337560517472411601231829
192,1.5932238552607399239775095030658
193,1.5942700117597228889175503335898
194,1.5953107597793706569333564053106
195,1.5963461549735204728746146102924
196,1.5973762521413452884714672658711
197,1.5984011052447669581800863852872
198,1.5994207674254283159130820817679
199,1.6004352910212369664713844106791
200,1.6014447275824947318395363721362
201,1.6024491278876237287242042280216
202,1.6034485419585024534485202501848
203,1.6044430190754225288850746995344
204,1.6054326077916777282903540565436
205,1.6064173559477952413536014039947
206,1.6073973106854222011582986370940
207,1.6083725184608733426826624943319
208,1.6093430250583540142451000359371
209,1.6103088756028642847232410648833
210,1.6112701145727956421468135141473
211,1.6122267858122276426217987033042
212,1.6131789325429347367092880072888
213,1.6141265973761076511480868058662
214,1.6150698223238043016058064359414
215,1.6160086488101294426843270358968
216,1.6169431176821570096313843053287
217,1.6178732692205991107949065120065
218,1.6187991431502306432642049698064
219,1.6197207786500728046282142830711
220,1.6206382143633480089726068293005
221,1.6215514884072041093995501645997
222,1.6224606383822251244296038674539
223,1.6233657013817220291106100687765
224,1.6242667140008186701255264021599
225,1.6251637123453353614354455849705
226,1.6260567320404736983920542156869
227,1.6269458082393112331595413874886
228,1.6278309756311078216387441613324
229,1.6287122684494307940302430723241
230,1.6295897204801036352661561985120
231,1.6304633650689799645665451032517
232,1.6313332351295532230264518338560
233,1.6321993631503970547231319591153
234,1.6330617812024525273944879427387
235,1.6339205209461553637735388916030
236,1.6347756136384128823319196717281
237,1.6356270901394342675440680151047
238,1.6364749809194159006670290359421
239,1.6373193160650871865998100697526
240,1.6381601252861190302225809464873
241,1.6389974379213992435469491048912
242,1.6398312829451777396099121064246
243,1.6406616889730855438668279991378
244,1.6414886842680293113007542357169
245,1.6423122967459657223405847771775
246,1.6431325539815582761365901276980
247,1.6439494832137178629595575797227
248,1.6447631113510346962586151030223
249,1.6455734649770965728735646905181
250,1.6463805703557038455031529493516
251,1.6471844534359790068362644253219
252,1.6479851398573736832417275651968
253,1.6487826549545781096147625470452
254,1.6495770237623327416329819263581
255,1.6503682710201458848462886944563
256,1.6511564211769174253631515276995
257,1.6519414983954750528727348055896
258,1.6527235265570194200568908630522
259,1.6535025292654850412380305064852
260,1.6542785298518173159625079427350
261,1.6550515513781659905721836475927
262,1.6558216166419997824910621021785
263,1.6565887481801410171098171657422
264,1.6573529682727257274207282508169
265,1.6581142989470877409312755075353
266,1.6588727619815689208884257969398
267,1.6596283789092587743460537248171
268,1.6603811710216634600743992800256
269,1.6611311593723084655105576278819
270,1.6618783647802706761745996073696
271,1.6626228078336491207872934539504
272,1.6633645088929683709335896806572
273,1.6641034880945220376657879409619
274,1.6648397653536535733437070820948
275,1.6655733603679782535707162203097
276,1.6663042926205446168574654513321
277,1.6670325813829428453064964443263
278,1.6677582457183518402449327427652
279,1.6684813044845364952526336144506
280,1.6692017763367872594352044492002
281,1.6699196797308098797478757759193
282,1.6706350329255628186219187149924
283,1.6713478539860455593230069964804
284,1.6720581607860349555598856747987
285,1.6727659710107764325875322771962
286,1.6734713021596260645326261160830
287,1.6741741715486485872164845494010
288,1.6748745963131677482342344382697
289,1.6755725934102736423377272235047
290,1.6762681796212877646329910595206
291,1.6769613715541836225157236911863
292,1.6776521856459657912346818452533
293,1.6783406381650113188407513229357
294,1.6790267452133685174201549226462
295,1.6797105227290152277392834208703
296,1.6803919864880841428451877135483
297,1.6810711521070451223296641016845
298,1.6817480350448538139916317418943
299,1.6824226506050633857365268409715
300,1.6830950139379011182994505072710
301,1.6837651400423102702106109434873
302,1.6844330437679593079167016627877
303,1.6850987398172156741679584513709
304,1.6857622427470876721811013523579
305,1.6864235669711358940856742256466
306,1.6870827267613534568541623595998
307,1.6877397362500122276705315728459
308,1.6883946094314825171664345716065
309,1.6890473601640223297916341706521
310,1.6896980021715365064658945017326
311,1.6903465490453093544162822667656
312,1.6909930142457082773337752296129
313,1.6916374111038597985983514790791
314,1.6922797528232997818481861352309
315,1.6929200524815971685365791731910
316,1.6935583230319526081204505753802
317,1.6941945773047695194862123560132
318,1.6948288280092029348597749424727
319,1.6954610877346832677638716553011
320,1.6960913689524150062826073717994
321,1.6967196840168542505690655784398
322,1.6973460451671612090284751359428
323,1.6979704645286311672176691072853
324,1.6985929541141029066024476811609
325,1.6992135258253463351551662325855
326,1.6998321914544275670211066051388
327,1.7004489626850542720108624553385
328,1.7010638510938984841153284173863
329,1.7016768681519018439034452393537
330,1.7022880252255597064710617590005
331,1.7028973335781855535186481688054
332,1.7035048043711567707843119978668
333,1.7041104486651421693712219501546
334,1.7047142774213094349775343225507
335,1.7053163015025168199451443717233
336,1.7059165316744851361635064409604
337,1.7065149786069529210586517162096
338,1.7071116528748158355034369321427
339,1.7077065649592463581404273433052
340,1.7082997252487998674422460124463
341,1.7088911440405028250712048157273
342,1.7094808315409255576721122772635
343,1.7100687978672392748718490005550
344,1.7106550530482573171772557482520
345,1.7112396070254624530904903681737
346,1.7118224696540177002206847401480
347,1.7124036507037642357357788440849
348,1.7129831598602032078630342452457
349,1.7135610067254649933476233783299
350,1.7141372008192634431952116065196
351,1.7147117515798372042869040352243
352,1.7152846683648777992172516524207
353,1.7158559604524437487193278221808
354,1.7164256370418621511387808116438
355,1.7169937072546180842266153525489
356,1.7175601801352300390261174571609
357,1.7181250646521146248847395679965
358,1.7186883696984397895851144273300
359,1.7192501040929622997276193436642
360,1.7198102765808584192769484887434
361,1.7203688958345395311355292628331
362,1.7209259704544591833389541357854
363,1.7214815089699061554802617405999
364,1.7220355198397885693527404913548
365,1.7225880114534072801735905023389
366,1.7231389921312174260540922779565
367,1.7236884701255810277224354980858
368,1.7242364536215074272256919023523
369,1.7247829507373861981524564380255
370,1.7253279695257082405494784496806
371,1.7258715179737779138387580482483
372,1.7264136040044151642125431236395
373,1.7269542354766476132202011918020
374,1.7274934201863969160249025901955
375,1.7280311658671500808987672694652
376,1.7285674801906272061707974967124
377,1.7291023707674374238381025226808
378,1.7296358451477262172502420934725
379,1.7301679108218159526681544581815
380,1.7306985752208363814622867599624
381,1.7312278457173479883847669423628
382,1.7317557296259553040853550883904
383,1.7322822342039148565330545483766
384,1.7328073666517327250427458831040
385,1.7333311341137553181622804465752
386,1.7338535436787540340712281174417
387,1.7343746023804995528269443789521
388,1.7348943171983296972546643117550
389,1.7354126950577115371649933547025
390,1.7359297428307949260022151970831
391,1.7364454673369577868608286896623
392,1.7369598753433467562434633413778
393,1.7374729735654106590428707061933
394,1.7379847686674253958402803268120
395,1.7384952672630130993887913154817
396,1.7390044759156552111441461615176
397,1.7395124011391991077463302894685
398,1.7400190493983582855815959141515
399,1.7405244271092046692111237116372
400,1.7410285406396573436188386325256
401,1.7415313963099637591932933969735
402,1.7420330003931741546551839553021
403,1.7425333591156120186651305016076
404,1.7430324786573384831968812928469
405,1.7435303651526081141163427976922
406,1.7440270246903222079959943664114
407,1.7445224633144767118805018573329
408,1.7450166870246022691927959516826
409,1.7455097017761992528531149035432
410,1.7460015134811703000854458318952
411,1.7464921280082446089246177064390
412,1.7469815511833975790096198868971
413,1.7474697887902668757184918099700
414,1.7479568465705613414869280013216
415,1.7484427302244670382692247458023
416,1.7489274454110468507710513205388
417,1.7494109977486364989378294930478
418,1.7498933928152341229317179182085
419,1.7503746361488877191061918490254
420,1.7508547332480754088970089594837
421,1.7513336895720824928113659794723
422,1.7518115105413745711144552596861
423,1.7522882015379645673518076396764
424,1.7527637679057772684297527176851
425,1.7532382149510077606111163946958
426,1.7537115479424773682647298913257
427,1.7541837721119845799955089167351
428,1.7546548926546509758410566165837
429,1.7551249147292660679190559142526
430,1.7555938434586239166291426512807
431,1.7560616839298590260601969086860
432,1.7565284411947786681150115102835
433,1.7569941202701869732455222699141
434,1.7574587261382118857333572123416
435,1.7579222637466228071857374361931
436,1.7583847380091468292343817753042
437,1.7588461538057817168026724122590
438,1.7593065159831046240018494421009
439,1.7597658293545772239567086682533
440,1.7602240987008483237696472032118
441,1.7606813287700511244719689374632
442,1.7611375242780986896045064199872
443,1.7615926899089772701176166766193
444,1.7620468303150321049576870960734
445,1.7624999501172550279929901977667
446,1.7629520539055649056239774230878
447,1.7634031462390880742404311621953
448,1.7638532316464319957225473601623
449,1.7643023146259599714840057531588
450,1.7647503996460590674934022869054
451,1.7651974911454087533622493990650
452,1.7656435935332430968415192887801
453,1.7660887111896122567931303137981
454,1.7665328484656396635788762715094
455,1.7669760096837785107331464359696
456,1.7674181991380628549118839751232
457,1.7678594210943580198188639644696
458,1.7682996797906066999993727188328
459,1.7687389794370732784194653222784
460,1.7691773242165860001675830569104
461,1.7696147182847748519968752773803
462,1.7700511657703083607517677150214
463,1.7704866707751279144441370929682
464,1.7709212373746777668774772480249
465,1.7713548696181346945489575557417
466,1.7717875715286344365192433724858
467,1.7722193471034941977604711243771
468,1.7726502003144362316162891106617
469,1.7730801351078049780657166738963
470,1.7735091554047852823230214539771
471,1.7739372651016159608765885557149
472,1.7743644680698030125709984429828
473,1.7747907681563278256291347087871
474,1.7752161691838578846006823769038
475,1.7756406749509488999878212708584
476,1.7760642892322508743447555131825
477,1.7764870157787084378428340524969
478,1.7769088583177601292831236750390
479,1.7773298205535355119324322626441
480,1.7777499061670505187585963325220
481,1.7781691188163995779318070354585
482,1.7785874621369480873722199034614
483,1.7790049397415206183333440989371
484,1.7794215552205876677674205394738
485,1.7798373121424524363418552487382
486,1.7802522140534322168901234105226
487,1.7806662644780412420720302061611
488,1.7810794669191695877194017030734
489,1.7814918248582613599580910310247
490,1.7819033417554900291415166524418
491,1.7823140210499330447842442095201
492,1.7827238661597443195899778682815
493,1.7831328804823245574865794803830
494,1.7835410673944905196107527661538
495,1.7839484302526414206379333586514
496,1.7843549723929256997798977166433
497,1.7847606971314038518662897366056
498,1.7851656077642112636600894405751
499,1.7855697075677185526221000506128
500,1.785972999798691538486870720325
501,1.786375487694446593553414622111
502,1.786777174473008826728916067080
503,1.787178063333264569309911057313
504,1.787578157455116006190380440154
505,1.787977459999630799814563115702
506,1.788375974109192436808899242611
507,1.788773702907649145163105001766
508,1.789170649500461021763920605886
509,1.789566816974843601007053863649
510,1.789962208399913917560800394058
511,1.790356826826832294192320770513
512,1.790750675288943754683530356356
513,1.791143756801917677407808853829
514,1.791536074363886365862639315562
515,1.791927630955582910290781162556
516,1.792318429540476550614527310374
517,1.792708473064906615309407127115
518,1.793097764458216821491920588235
519,1.793486306632886718057399092443
520,1.793874102484663128761776783869
521,1.794261154892688390369830753015
522,1.794647466719629661965558414321
523,1.795033040811805742476840110579
