Eigenstate,Potential Energy
1,0.500000000020239642452440606497599647
2,0.64623093778322839226061996070576402
3,0.73633761009304872325330515469763468
4,0.79966527862254957495253761228463841
5,0.8480465766858430102454011940611741
6,0.8870659990368711883333556869358414
7,0.9197208271134649245159387019889313
8,0.9477838472923950443526270775012015
9,0.9723835585798423324625368876747096
10,0.9942802151243184668870823966693033
11,1.0140093870668224842636895872001721
12,1.0319621697119557735230431126351159
13,1.0484326931255048164508897608963059
14,1.0636476549905975030141264287979208
15,1.0777854364218848710701241893065316
16,1.090988906835984262738822876337329
17,1.103374257412982517468309502161212
18,1.115037252102634756280143167157359
19,1.126057750728341599217847261937061
20,1.136503046621085371077280447581760
21,1.146430372701127138385217207955342
22,1.155888812636746757713927537671907
23,1.164920778780767479950168140610728
24,1.173563169570978079402847247603320
25,1.181848286326059228518562812333023
26,1.189804567053171240039756334227111
27,1.197457179410529899512536782438315
28,1.204828504066446303443680927123183
29,1.211938531901278797937229807764202
30,1.218805192849257544063027614374546
31,1.225444630031203736640328489938196
32,1.231871429751265918764067536057889
33,1.238098815621148030547553889804571
34,1.244138813324757564613205553260898
35,1.250002391197007135335163454470744
36,1.255699580757023890429123051886287
37,1.261239580531936645084379530838938
38,1.266630845876991875787399718740822
39,1.271881166999901061546248923402034
40,1.276997737001501076743564529189820
41,1.281987211428059066176771994617148
42,1.286855760575560631381515645697019
43,1.291609115579833812453190268131316
44,1.296252609158267334106669718112332
45,1.300791211731312015741855765913166
46,1.305229563538817962709886715251572
47,1.309572003272783543660826452832347
48,1.313822593670505794620262464085856
49,1.317985144447459346558185010548092
50,1.32206323289510825957072448425145
51,1.32606022242338818433167102148372
52,1.32997927928925105717874676735521
53,1.33382338772021441665988340590979
54,1.33759536361429629791394452781471
55,1.34129786697424116875302182557245
56,1.34493341321386780119212582024347
57,1.34850438345717100705637595905784
58,1.35201303393601198000768756209434
59,1.35546150457947803906021927728684
60,1.35885182687696806095368723673127
61,1.36218593108749566125086535335416
62,1.36546565285940117891368932642188
63,1.36869273931742163009315760813814
64,1.37186885466775531694731589713173
65,1.37499558536622293732977214435876
66,1.37807444488977970213800650301911
67,1.38110687814737067578566733359897
68,1.38409426556236539445515922213014
69,1.38703792685549514606058650023297
70,1.38993912455428802758762435379609
71,1.39279906725239819174611683677472
72,1.39561891263992745249180354575821
73,1.39839977032378441257035454341034
74,1.40114270445530742768440158269762
75,1.40384873618074662078148370208806
76,1.40651884592875060320576427457447
77,1.40915397554770116103842780295660
78,1.41175503030457336677161461281641
79,1.41432288075595175646862678061894
80,1.41685836450089508691879051150939
81,1.41936228782449284581882417755432
82,1.42183542724019523745912528342281
83,1.42427853093830963260378126094196
84,1.42669232014743217953702234101225
85,1.42907749041502399707518179238031
86,1.43143471281282550495396209767481
87,1.43376463507234497620093928031661
88,1.43606788265523401836757084037752
89,1.43834505976297918833348634916646
90,1.44059675028999572866658898381185
91,1.44282351872388796147179893483397
92,1.44502591099635257812215024234076
93,1.44720445528793880821034857653036
94,1.44935966278963652232078453319962
95,1.45149202842404216919299351504808
96,1.45360203152865062573112351572371
97,1.45569013650363669620439478911568
98,1.45775679342631712268879750311837
99,1.45980243863433049661116684898270
100,1.46182749527942612084071708904142
101,1.46383237385362356761861083357131
102,1.46581747268937910289508724074061
103,1.46778317843528723403077054888487
104,1.46972986650873837310840211070071
105,1.47165790152686053434428996717089
106,1.47356763771698221984511390982873
107,1.47545941930777556600026300356955
108,1.47733358090215958324553128981800
109,1.47919044783297472839980887112819
110,1.48103033650237762865136585207207
111,1.48285355470583891507179382252104
112,1.48466040194157768990219903410313
113,1.48645116970621061606216256579937
114,1.48822614177734485957565001485619
115,1.48998559448380366710546693516742
116,1.49172979696412502913966119921481
117,1.49345901141394216636647239658732
118,1.49517349332281354566889007856063
119,1.49687349170103641845358309219976
120,1.49855924929695203179394473776898
121,1.50023100280521239562283112444267
122,1.50188898306645957607772012280029
123,1.50353341525883629216907370542246
124,1.50516451908172891313398338865609
125,1.50678250893211438757411176375241
126,1.50838759407386743817934370843988
127,1.50997997880036377795219640111711
128,1.51155986259069251665813367776754
129,1.51312744025977885298882172259649
130,1.51468290210269976605809671021375
131,1.51622643403346001573236628428505
132,1.51775821771848078409631721820662
133,1.51927843070504150877089653771952
134,1.52078724654490418284164983304695
135,1.52228483491333128781301638732593
136,1.52377136172370483847382297075472
137,1.52524698923794071061563282720325
138,1.52671187617287881055500300157438
139,1.52816617780282753950507538545053
140,1.52961004605842555987370280595283
141,1.53104362962197931307528769236704
142,1.53246707401942666517649450899760
143,1.53388052170906840652668373868516
144,1.53528411216720215188689022237725
145,1.53667798197078899981217151705073
146,1.53806226487727544129110418012795
147,1.53943709190168480468033610223632
148,1.54080259139109356593862158259703
149,1.54215888909659432509060186777272
150,1.54350610824284908977338071539616
151,1.54484436959532878009506172450025
152,1.54617379152532925394994819056531
153,1.54749449007285280245829896984050
154,1.54880657900743901474655476717791
155,1.55011016988702324803424424163381
156,1.55140537211490056936364786094572
157,1.55269229299486621554828869779568
158,1.55397103778460438941382901210620
159,1.5552417097473890651369654029887
160,1.5565044102021631401921914637857
161,1.5577592385720544299975603352923
162,1.5590062924313879663309628363750
163,1.5602456675512494527863993891243
164,1.5614774579436545138353542331944
165,1.5627017559043723376810817902000
166,1.5639186520544542284646137366376
167,1.5651282353805143001121365255444
168,1.5663305932738050007073137325813
169,1.5675258115681325294492413057065
170,1.5687139745766518892818951809479
171,1.5698951651275817696259013978541
172,1.5710694645988771258406265052034
173,1.5722369529518948577174205297889
174,1.5733977087640884304880388629519
175,1.5745518092607654232512671894652
176,1.5756993303459377111405922462999
177,1.5768403466322975417403641748737
178,1.5779749314703486601166118709358
179,1.5791031569767189273782564590206
180,1.5802250940616853791375679347443
181,1.5813408124559343724258781936167
182,1.5824503807365845164197619460363
183,1.5835538663524954362214745301583
184,1.5846513356488866111993709951566
185,1.5857428538912880959813260726246
186,1.5868284852888440926900844147623
187,1.5879082930169931748873908771680
188,1.5889823392395405995107135734982
189,1.5900506851301464378594589607078
190,1.5911133908932451766744553131206
191,1.5921705157844160118282861994057
192,1.5932221181302202167944809248420
193,1.5942682553475238897079540323787
194,1.5953089839623194197631680759016
195,1.5963443596280636052719339066002
196,1.5973744371435461152435413226967
197,1.5983992704703026697703340466554
198,1.5994189127495871011597921108987
199,1.6004334163189151296285805672435
200,1.6014428327281937937193851764716
201,1.6024472127554475118192672903851
202,1.6034466064221541508908449602865
203,1.6044410630082017570980883992972
204,1.6054306310664775631882692938086
205,1.6064153584370992379419102478084
206,1.6073952922613013963875799270410
207,1.6083704789949832414069439186038
208,1.6093409644219315581345263788283
209,1.6103067936667248039797173613730
210,1.6112680112073297898699480998727
211,1.6122246608873983116713028457477
212,1.6131767859282739589085710850565
213,1.6141244289407134786725545969687
214,1.6150676319363376703980412789624
215,1.6160064363388110177369941040838
216,1.6169408829947640119773753635071
217,1.6178710121844621260428460438562
218,1.6187968636322304115161103074110
219,1.6197184765166369916146853673156
220,1.6206358894804479582394962736588
221,1.6215491406403515753787102890553
222,1.6224582675964689862247939637592
223,1.6233633074416449848282577996861
224,1.6242642967705339115785626764587
225,1.6251612716884832290469083000772
226,1.6260542678202183161236892135895
227,1.6269433203183371232891704098568
228,1.6278284638716164992085046035188
229,1.6287097327131373407863968930555
230,1.6295871606282332529095254208715
231,1.6304607809622645071310455319771
232,1.6313306266282277082016477067230
233,1.6321967301141961539350802807049
234,1.6330591234906070344575151860845
235,1.6339178384173886419239506604998
236,1.6347729061509372894530326024731
237,1.6356243575509475593900894274812
238,1.6364722230870976118918018149371
239,1.6373165328455949893946757126753
240,1.6381573165355850703656994834373
241,1.6389946034954264536648841454060
242,1.6398284226988361294504885387235
243,1.6406588027609084673801706738017
244,1.6414857719440097103240142121677
245,1.6423093581635523466797936539932
246,1.6431295889936518798371356685391
247,1.6439464916726673765551638163331
248,1.6447600931086333747865471834992
249,1.6455704198845781194421032140540
250,1.6463774982637385101950858943383
251,1.6471813541946696607306289629765
252,1.6479820133162518673335838681905
253,1.6487795009626000584112831099079
254,1.6495738421678753812015922693655
255,1.6503650616710028050889941803262
256,1.6511531839202948262886910552645
257,1.6519382330779876646363957024676
258,1.6527202330246863965356904088157
259,1.6534992073637258269067144953354
260,1.6542751794254474858337137128883
261,1.6550481722713930629616867116931
262,1.6558182086984190043674076822703
263,1.6565853112427311217845717977610
264,1.6573495021838446643340979200412
265,1.6581108035484683772849722910084
266,1.6588692371143147148757891309735
267,1.6596248244138394197266756143455
268,1.6603775867379105018383856856262
269,1.6611275451394108863753049728660
270,1.6618747204367704536540813501419
271,1.6626191332174367545718255609804
272,1.6633608038412783803153571353671
273,1.6640997524439284287430124196128
274,1.6648359989400652757337161843457
275,1.6655695630266345263596677658318
276,1.6663004641860104235118800186151
277,1.6670287216891041972692239960275
278,1.6677543545984111089351652209307
279,1.6684773817710076921875436297089
280,1.6691978218614912841873885550643
281,1.6699156933248697354505662436770
282,1.6706310144193987947307713527754
283,1.6713438032093703813407718815743
284,1.6720540775678489014273974986189
285,1.6727618551793624154411722157336
286,1.6734671535425446815263279863769
287,1.6741699899727331341025267561771
288,1.6748703816045191993946188223014
289,1.6755683453942555959550111980497
290,1.6762638981225213526860708532869
291,1.6769570563965423852832185558652
292,1.6776478366525705159852697949812
293,1.6783362551582248423871254768843
294,1.6790223280147904922093956772755
295,1.6797060711594768511499594943848
296,1.6803875003676428493577611871306
297,1.6810666312549792382335530197803
298,1.6817434792796571742891700047987
299,1.6824180597444399129005972280222
300,1.6830903877987593625380917739589
301,1.6837604784407579108884419781705
302,1.6844283465192976157798350935820
303,1.6850940067359339340150940019492
304,1.6857574736468575656203053794880
305,1.6864187616648058420124600396619
306,1.6870778850609429212832474300029
307,1.6877348579667059725494510261817
308,1.6883896943756248277959087965627
309,1.6890424081451111904734182653250
310,1.6896930129982177359955235614127
311,1.6903415225253706990338304995762
312,1.6909879501860734607417849075448
313,1.6916323093105825286527886934279
314,1.6922746131015577135234241935780
315,1.6929148746356858227620625700118
316,1.6935531068652792460821489717833
317,1.6941893226198469719820625166040
318,1.6948235346076433862940600529065
319,1.6954557554171919943612991560924
320,1.6960859975187840680984495676956
321,1.6967142732659561368675183274224
322,1.6973405948969424365967880273671
323,1.6979649745361058311795453825445
324,1.6985874241953461832892932348449
325,1.6992079557754879365894418890835
326,1.6998265810676451465614735107798
327,1.7004433117545667807039923830064
328,1.7010581594119594772946382474372
329,1.7016711355097927375703338767628
330,1.7022822514135829829891314581062
331,1.7028915183856579161469153469648
332,1.7034989475864022465698786833220
333,1.7041045500754851599177142792991
334,1.7047083368130677145996197251753
335,1.7053103186609944807151277607637
336,1.7059105063839654793502265677291
337,1.7065089106506912944539067583077
338,1.7071055420350324161260046075700
339,1.7077004110171188798021064831767
340,1.7082935279844562926550863594480
341,1.7088849032330139607693556580894
342,1.7094745469682976142164207708580
343,1.7100624693064063677995743772248
344,1.7106486802750739111536599185405
345,1.7112331898146957475128741364817
346,1.7118160077793399559202643710933
347,1.7123971439377450422164141926004
348,1.7129766079743016905098145677677
349,1.7135544094900219600325822090512
350,1.7141305580034934697008900686955
351,1.7147050629518206579624802142003
352,1.7152779336915528002759271443335
353,1.7158491794995980685787130668980
354,1.7164188095741250471998630198379
355,1.7169868330354520704806657157606
356,1.7175532589269225918717006157838
357,1.7181180962157698235307104695865
358,1.7186813537939698904086416614479
359,1.7192430404790792439492865005859
360,1.7198031650150652733080229169588
361,1.7203617360731218589459478378309
362,1.7209187622524763501865506996396
363,1.7214742520811825623353972367168
364,1.7220282140169048173448364164173
365,1.7225806564476912643787043718577
366,1.7231315876927353579349145682788
367,1.7236810160031283855254053015332
368,1.7242289495625998336310782438526
369,1.7247753964882502244663017282069
370,1.7253203648312721367182067825874
371,1.7258638625776622635591679149812
372,1.7264058976489234644020416530290
373,1.7269464779027567771038118157216
374,1.7274856111337476990873639112269
375,1.7280233050740374289416250412036
376,1.7285595673939905247061720549138
377,1.7290944057028507680416319363711
378,1.7296278275493884016874692697941
379,1.7301598404225405800000872289649
380,1.7306904517520417893259167182335
381,1.7312196689090471136364184813519
382,1.7317474992067454635850162262988
383,1.7322739499009674436383197254492
384,1.7327990281907828209723787215575
385,1.7333227412190912173791153045555
386,1.7338450960732066828250013785507
387,1.7343660997854318999876005423998
388,1.7348857593336259565569232595982
389,1.7354040816417663599748675641024
390,1.7359210735805024837061980360077
391,1.7364367419677007619679597473632
392,1.7369510935689852412801163491553
393,1.7374641350982709623097629343764
394,1.7379758732182887530904089307822
395,1.7384863145411042904737683905030
396,1.7389954656286310806661840080488
397,1.7395033329931369887415319534558
398,1.7400099230977443252488945833477
399,1.7405152423569220556901395429984
400,1.7410192971369744328081191130623
401,1.7415220937565221005887163130672
402,1.7420236384869764151764228846645
403,1.7425239375530098034262871393574
404,1.7430229971330200521649965887740
405,1.7435208233595859935888868074208
406,1.7440174223199206958166570131930
407,1.7445128000563192752991919574961
408,1.7450069625665988342634491416793
409,1.7454999158045333842494265118989
410,1.7459916656802862702018355398203
411,1.7464822180608343551162043150002
412,1.7469715787703875478113759865013
413,1.7474597535908047528702722456323
414,1.7479467482620026665768052701419
415,1.7484325684823617027935335691613
416,1.7489172199091254783956681496603
417,1.7494007081587967067300934421942
418,1.7498830388075266623181911955389
419,1.7503642173915024952963342938241
420,1.7508442494073273774979276446951
421,1.7513231403123974323431365573101
422,1.7518008955252747301207025629246
423,1.7522775204260541847837812643595
424,1.7527530203567279659663934495798
425,1.7532274006215438055621252055590
426,1.7537006664873608056862314482974
427,1.7541728231840002326322368254315
428,1.7546438759045913104911890039025
429,1.7551138298059159268018593631789
430,1.7555826900087451123176474164715
431,1.7560504615981747985236861465595
432,1.7565171496239580023982954837304
433,1.7569827591008287762941353309373
434,1.7574472950088290208552218492797
435,1.7579107622936259846219634483492
436,1.7583731658668283512921152419457
437,1.7588345106062990759847322733961
438,1.7592948013564639525481449893224
439,1.7597540429286165931927967532291
440,1.7602122401012208916383641552733
441,1.7606693976202081296034304385640
442,1.7611255201992722902594480507882
443,1.7615806125201632263187146065271
444,1.7620346792329723021018639188204
445,1.7624877249564198402172189195188
446,1.7629397542781353971744565874849
447,1.7633907717549380370742404206381
448,1.7638407819131098215475140772171
449,1.7642897892486703564210313946253
450,1.7647377982276445475219145243719
451,1.7651848132863310686863275635303
452,1.7656308388315643832912781764462
453,1.7660758792409760623514434774210
454,1.7665199388632517880994205090960
455,1.7669630220183876668915136648889
456,1.7674051329979411484063372565689
457,1.7678462760652812468122393079470
458,1.7682864554558344597675087397939
459,1.7687256753773288991464307326649
460,1.7691639400100362758004750486116
461,1.7696012535070095880471398477628
462,1.7700376199943197269024104152580
463,1.7704730435712896017944759953571
464,1.7709075283107239476295561551706
465,1.7713410782591387819109315750456
466,1.7717736974369876425727066240661
467,1.7722053898388838870090781711858
468,1.7726361594338240679038337650545
469,1.7730660101654048625204280517740
470,1.7734949459520410799570326197802
471,1.7739229706871790134354969798093
472,1.7743500882395094351990645458265
473,1.7747763024531755848824644205283
474,1.7752016171479836553099715824824
475,1.7756260361196046984372147500862
476,1.7760495631397804652019783796428
477,1.7764722019565235122409457223548
478,1.7768939562943162514192411181048
479,1.7773148298543078315159964340841
480,1.7777348263145092466040755584433
481,1.7781539493299852219563359466164
482,1.7785722025330464462210584937141
483,1.7789895895334375298197846249774
484,1.7794061139185235092761291960297
485,1.7798217792534763743058235834588
486,1.7802365890814562024137896647664
487,1.7806505469237937497323572027562
488,1.7810636562801690945382420580802
489,1.7814759206287895614975944135426
490,1.7818873434265647896330366854036
491,1.7822979281092810781604495496503
492,1.7827076780917735982468644360116
493,1.7831165967680964455583078298381
494,1.7835246875116916274973395255990
495,1.7839319536755551774816627775193
496,1.7843383985924036405397405281558
497,1.7847440255748366155952485048703
498,1.7851488379154992995431989244325
499,1.7855528388872425302851203016666
500,1.785956031743282459039330314649
501,1.786358419717355597778580209284
502,1.786760006023876696785592133588
503,1.787160793858090920259347894045
504,1.787560786396228163612278937972
505,1.787959986795652359722063972973
506,1.788358398195011504020675406205
507,1.788756023714386246238519802785
508,1.789152866455436688549698563465
509,1.789548929501545620791552914234
510,1.789944215917964245774860183305
511,1.790338728751953625537735877290
512,1.790732471032925748513379486116
513,1.791125445772582833123577402676
514,1.791517655965055544033054139265
515,1.791909104587040495137148166922
516,1.792299794597935249444554423141
517,1.792689728939971890419284421149
518,1.793078910538350949993526928732
519,1.793467342301372475020800451249
520,1.793855027120567088999009290927
521,1.794241967870823844118373341388
522,1.794628167410519139661333621395
523,1.795013628581643143738621055215
