Eigenstate,Potential Energy
1,0.500000000073925619959681177232521205
2,0.64623093813366328775965252766706970
3,0.73633761112242665604678704116363332
4,0.79966528076663683997837717672048301
5,0.8480465803998642421443663727742352
6,0.8870660047840327807721282784909177
7,0.9197208353607281404345511503868388
8,0.9477838585087147938351036030576015
9,0.9723835732353496413000842587700381
10,0.9942802336899068689851312187189624
11,1.0140094100139245647386952197519923
12,1.0319621975124166114771648238634931
13,1.0484327262515081820728432203567493
14,1.0636476939146224166763285592373448
15,1.0777854816166804810726162638777442
16,1.090988958774556231792483657554258
17,1.103374316568586897375328047462657
18,1.115037318948776886334794657765438
19,1.126057825738778467210236526382061
20,1.136503130269830418948817895184037
21,1.146430465462456831490709979468778
22,1.155888914985208451490021049660450
23,1.164920891191188258244198604497826
24,1.173563292518474332617361069485438
25,1.181848420286046803790629113495471
26,1.189804712501376040194617675207567
27,1.197457336822998838995151757607537
28,1.204828673919558552013671949139688
29,1.211938714671757259351311224106818
30,1.218805389014180529092781093254713
31,1.225444840068016798823538306682252
32,1.231871654137793828119912816234846
33,1.238099054835606865697621782640749
34,1.244139067845766907764597367686540
35,1.250002661503602357702294755320845
36,1.255699867328668518116871666606426
37,1.261239883848534797388275150486929
38,1.266631166418900769405511007127896
39,1.271881505247943575431471438613484
40,1.276998093436978373321277829802840
41,1.281987586532763265462065836548019
42,1.286856154831787535191706166171654
43,1.291609529470395676455132183139086
44,1.296253043166505685887764516318056
45,1.300791666341110517467148141336662
46,1.305230039234615317239589695279190
47,1.309572500539586443264289969036890
48,1.313823112993901911643199070026234
49,1.317985686313630365586867682935882
50,1.32206379779084295079591743052859
51,1.32606081083609551795106139004802
52,1.32997989170697335879326225087948
53,1.33382402463164056371975624763317
54,1.33759602550877495735750078060870
55,1.34129855434179407605672021795743
56,1.34493412654520308111637680154483
57,1.34850512324369653642940028775093
58,1.35201380066984879294075940081739
59,1.35546229875347377503230587683467
60,1.35885264898471045624360061238236
61,1.36218678162332608423045118319948
62,1.36546653231842820974752741726774
63,1.36869364819553468541873613848778
64,1.37186979346163832013545453783099
65,1.37499655457336803494866233202112
66,1.37807544500850102726544073878097
67,1.38110790967681815883363599615730
68,1.38409532900253862218897462156665
69,1.38703902270725726951148715773018
70,1.38994025331937971957289245904638
71,1.39280022943345165472565929912429
72,1.39562010874048047750318299860108
73,1.39840100084829448999737543415453
74,1.40114396990916591062618059919984
75,1.40385003707029294180057839858017
76,1.40652018276128654524465678884969
77,1.40915534883150518330433033800561
78,1.41175644054891498639966400832731
79,1.41432432847110598678326251379803
80,1.41685985019815693312249301207633
81,1.41936381201619185894682026591503
82,1.42183699043971012744755949325014
83,1.42428013366008294132766060571931
84,1.42669396290698501468299713612484
85,1.42907917372897082772279928539811
86,1.43143643719888901974731403670925
87,1.43376640104937100500124479499750
88,1.43606969074320651828538130187353
89,1.43834691048303529504747580154608
90,1.44059864416444087394411683955573
91,1.44282545627621105781476223833158
92,1.44502789275124127146964661631844
93,1.44720648177129479963806894822932
94,1.44936173452859095968515234907030
95,1.45149414594697110967644517467020
96,1.45360419536519057025303426824585
97,1.45569234718470019667070219368658
98,1.45775905148410846306150865676765
99,1.45980474460236144878766580687700
100,1.46182984969253177634099787150697
101,1.46383477724797824608736192606702
102,1.46581992560251233843401978319508
103,1.46778568140609984038527992830995
104,1.46973242007751858874182404828946
105,1.47166050623530024844136279167236
106,1.47357029410819328029570410562855
107,1.47546212792630617042312640817638
108,1.47733634229401075412141830066441
109,1.47919326254561687339217954830394
110,1.48103320508476718720266879501874
111,1.48285647770843509237250296838979
112,1.48466337991635927933960377699857
113,1.48645420320669291126560641541235
114,1.48822923135859665718470282477842
115,1.48998874070246436139759271855251
116,1.49173300037842179966395007246653
117,1.49346227258370725974038621684354
118,1.49517681280950165270511381852622
119,1.49687687006774214779478563237260
120,1.49856268710842748124386812084303
121,1.50023450062788482237276674577864
122,1.50189254146844916703856292298836
123,1.50353703480997403562995757603774
124,1.50516820035357457297992254249579
125,1.50678625249797458130638557318190
126,1.50839140050881381999381474701228
127,1.50998384868125132814248422873576
128,1.51156379649617793862244855768349
129,1.51313143877033907913118470886581
130,1.51468696580065057388673046945151
131,1.51623056350297475547048108876284
132,1.51776241354560921913324504196947
133,1.51928269347772877029348792772755
134,1.52079157685300983999946790836221
135,1.52228923334864853478344444474810
136,1.52377582887997979980631744186604
137,1.52525152571089186624801997975074
138,1.52671648256021654190798995090115
139,1.52817085470427379807514093884271
140,1.52961479407573365975825911183434
141,1.53104844935895384887805704102169
142,1.53247196608194355675564275780084
143,1.53388548670509507206251198493952
144,1.53528915070681781076076406357625
145,1.53668309466620510680301392737383
146,1.53806745234285625361125940623860
147,1.53944235475396808338774312727989
148,1.54080793024881141327758460432642
149,1.54216430458069415932975444192453
150,1.54351160097651475912455116805188
151,1.54484994020400181731399074799418
152,1.54617944063673027323533300456530
153,1.54750021831700304028278197317760
154,1.54881238701668201626988640637413
155,1.55011605829604670076606456263585
156,1.55141134156075828576102207527931
157,1.55269834411700026624987963346748
158,1.55397717122486738883130342730156
159,1.5552479261500666111417449725468
160,1.5565107102139964096543353699367
161,1.5577656228422629319518601249602
162,1.5590127616116924545645456548411
163,1.5602522222958949996606825367605
164,1.5614840989094337471751416097378
165,1.5627084837506488425831280166231
166,1.5639254674431861158975140255580
167,1.5651351389762779441999260561297
168,1.5663375857438189466098293903697
169,1.5675328935822815737724162340001
170,1.5687211468075113349730478563497
171,1.5699024282504418573297326974963
172,1.5710768192917676437137152702730
173,1.5722443998956099317207360273974
174,1.5734052486422114971993048505250
175,1.5745594427596943872617620192936
176,1.5757070581549102891236980472375
177,1.5768481694434167953023240475852
178,1.5779828499786087195637208784871
179,1.5791111718800309085583910860598
180,1.5802332060609034955383226044817
181,1.5813490222548822447360719505691
182,1.5824586890420816817858955616062
183,1.5835622738743840594561019578891
184,1.5846598431000584002239374896359
185,1.5857514619877114238121464509131
186,1.5868371947495913283018748775955
187,1.5879171045642682253163363223786
188,1.5889912535987066655856806647909
189,1.5900597030297539859772968714305
190,1.5911225130650601290635964504177
191,1.5921797429634481577728612191122
192,1.5932314510547518473203132814882
193,1.5942776947591386582598833116790
194,1.5953185306059314314336237998760
195,1.5963540142519467371704699938203
196,1.5973842004993635706267440974931
197,1.5984091433131367685830660164134
198,1.5994288958379693096695119330838
199,1.6004435104148563318665594693717
200,1.6014530385972148074741707016270
201,1.6024575311666098519608204519249
202,1.6034570381480910428370598107663
203,1.6044516088251494032681564206093
204,1.6054412917543066653222858760118
205,1.6064261347793467781999225287393
206,1.6074061850452026801767538329399
207,1.6083814890115042049210571041762
208,1.6093520924658013436256013723133
209,1.6103180405364686058191039116404
210,1.6112793777053019744920786015464
211,1.6122361478198158145319988338820
212,1.6131883941052499616275353625233
213,1.6141361591762913695686855882768
214,1.6150794850485252916651409418157
215,1.6160184131496152025477087988491
216,1.6169529843302254148440322152082
217,1.6178832388746903498041336542194
218,1.6188092165114394343604540111159
219,1.6197309564231808975947404873182
220,1.6206484972568569747729474002852
221,1.6215618771333684212760452831121
222,1.6224711336570855338280916797609
223,1.6233763039251392398899825363646
224,1.6242774245365073145551331285291
225,1.6251745316008982815277826276845
226,1.6260676607474365361641746268177
227,1.6269568471331573334616589258165
228,1.6278421254513134512369477102697
229,1.6287235299395006806760895324326
230,1.6296010943876068305353156638235
231,1.6304748521455860342971284958779
232,1.6313448361310687692373797319451
233,1.6322110788368025729436266802336
234,1.6330736123379396033871662896555
235,1.6339324682991642136848950973560
236,1.6347876779816702403575111804286
237,1.6356392722499916252491174148348
238,1.6364872815786881021578254539652
239,1.6373317360588913837958133958079
240,1.6381726654047140025367104526667
241,1.6390100989595250863373373655074
242,1.6398440657020959258244095107550
243,1.6406745942526193633613782157415
244,1.6415017128786046923710215912613
245,1.6423254495006524400679455806537
246,1.6431458316981115522110147287486
247,1.6439628867146203617040826618946
248,1.6447766414635389216435949467680
249,1.6455871225332676713739911615661
250,1.6463943561924628197174158415180
251,1.6471983683951463448511611712528
252,1.6479991847857134087968263764458
253,1.6487968307038422581867208780400
254,1.6495913311893062676316481835221
255,1.6503827109866920051840003294374
256,1.6511709945500234047312079927587
257,1.6519562060472984361322776893614
258,1.6527383693649347172252039579683
259,1.6535175081121308706271450261630
260,1.6542936456251440111036809602664
261,1.6550668049714836766374432974757
262,1.6558370089540269280024137396861
263,1.6566042801150534668067794052302
264,1.6573686407402062222391860915938
265,1.6581301128623759311290319543562
266,1.6588887182655118784374194055154
267,1.6596444784883620107970873856153
268,1.6603974148281424561871503081870
269,1.6611475483441407190303597824219
270,1.6618948998612482742273171095128
271,1.6626394899734318434545830726349
272,1.6633813390471373326650020341083
273,1.6641204672246338732772946777607
274,1.6648568944272951754491308073997
275,1.6655906403588220683892153616256
276,1.6663217245084045054404720627455
277,1.6670501661538305173277863350992
278,1.6677759843645338675992667891101
279,1.6684991980045919128140737386728
280,1.6692198257356657604307896626302
281,1.6699378860198906133105754453015
282,1.6706533971227137971963714112430
283,1.6713663771156836837079404408246
284,1.6720768438791866654853999098358
285,1.6727848151051389908398137728442
286,1.6734903082996294827555141943771
287,1.6741933407855182016383277282107
288,1.6748939297049874536896604065911
289,1.6755920920220497930764877818256
290,1.6762878445250137505333002644996
291,1.6769812038289051294463663528700
292,1.6776721863778467544401365764613
293,1.6783608084474005783541406731561
294,1.6790470861468671846435603793694
295,1.6797310354215447724657776504633
296,1.6804126720549552101366466569893
297,1.6810920116710270888043311813391
298,1.6817690697362450932183257665150
299,1.6824438615617624925787962879989
300,1.6831164023054785022004064642172
301,1.6837867069740809275602372249750
302,1.6844547904250561837965874677253
303,1.6851206673686638639242052986112
304,1.6857843523698794334349351582827
305,1.6864458598503064799530942120893
306,1.6871052040900577813096644615340
307,1.6877623992296023741568489733183
308,1.6884174592715861017235170378774
309,1.6890703980826217301499851866886
310,1.6897212293950489687253503105005
311,1.6903699668086679891116983832453
312,1.6910166237924439568705775699048
313,1.6916612136861839682266299312953
314,1.6923037497021881965326680841118
315,1.6929442449268745682735539065395
316,1.6935827123223783444459166689905
317,1.6942191647281241461212068338894
318,1.6948536148623757756400065110468
319,1.6954860753237609752080299145375
320,1.6961165585927711243635830006111
321,1.6967450770332397954656113237726
322,1.6973716428937962818549033462765
323,1.6979962683092976129475168567785
324,1.6986189653022380336308409557199
325,1.6992397457841377101729627792823
326,1.6998586215569089001086334982015
327,1.7004756043142024070969478025583
328,1.7010907056427315101901739665853
329,1.7017039370235783426214780716345
330,1.7023153098334791520317303364612
331,1.7029248353460898809687149990317
332,1.7035325247332331291474018051353
333,1.7041383890661268762753296581795
334,1.7047424393165931497232959255436
335,1.7053446863582509522324108073957
336,1.7059451409676895079763880789725
337,1.7065438138256246994942016600747
338,1.7071407155180397546217156654362
339,1.7077358565373062482108105995735
340,1.7083292472832915102633745041760
341,1.7089208980644481543511291955041
342,1.7095108190988882237696238201414
343,1.7100990205154415935199253827521
344,1.7106855123546986221358367050207
345,1.7112703045700388730094852659495
346,1.7118534070286433803326735698899
347,1.7124348295124940253433986956849
348,1.7130145817193568349384573557427
349,1.7135926732637527479196486349308
350,1.7141691136779133915674521441087
351,1.7147439124127239565013487695355
352,1.7153170788386528525598989319760
353,1.7158886222466674304493601805868
354,1.7164585518491371840211144661072
355,1.7170268767807247988481896974180
356,1.7175936060992632572888001424279
357,1.7181587487866222394851100110067
358,1.7187223137495630647200572699302
359,1.7192843098205779186987436261672
360,1.7198447457587223051111415402841
361,1.7204036302504324667939118385672
362,1.7209609719103342585453261619695
363,1.7215167792820380676740814080271
364,1.7220710608389248067508609333481
365,1.7226238249849212154152109194670
366,1.7231750800552633494039384539658
367,1.7237248343172511493165035299270
368,1.7242730959709908783653324048714
369,1.7248198731501300621830145593068
370,1.7253651739225806444009204519267
371,1.7259090062912332118589710945255
372,1.7264513781946612464882922447477
373,1.7269922975078153711553579674428
374,1.7275317720427118985338281902565
375,1.7280698095491063751703342339659
376,1.7286064177151635775721677809651
377,1.7291416041681157501518861005688
378,1.7296753764749122530731901466881
379,1.7302077421428624604533693580365
380,1.7307387086202686663477994977818
381,1.7312682832970518746326316550027
382,1.7317964735053675916435947428528
383,1.7323232865202162969430932601783
384,1.7328487295600435566329339078288
385,1.7333728097873334012079512758929
386,1.7338955343091956273517044582436
387,1.7344169101779427737777795397229
388,1.7349369443916607087013446141658
389,1.7354556438947735044193414588226
390,1.7359730155785997889283202888780
391,1.7364890662819008923469295866824
392,1.7370038027914243973731502215853
393,1.7375172318424405681315940402867
394,1.7380293601192702393924502032543
395,1.7385401942558070239413697640965
396,1.7390497408360334898942793248896
397,1.7395580063945309388075128276918
398,1.7400649974169827936893786382290
399,1.7405707203406701636861197264187
400,1.7410751815549638864128635263525
401,1.7415783874018090978794503321582
402,1.7420803441762030762807263010202
403,1.7425810581266691814730574555489
404,1.7430805354557247843223001539445
405,1.7435787823203406525035750996729
406,1.7440758048323979029329387883483
407,1.7445716090591396387303557881441
408,1.7450662010236147751150819590444
409,1.7455595867051169165415848799500
410,1.7460517720396208008128648875181
411,1.7465427629202105714801110245493
412,1.7470325651975034624345160041293
413,1.7475211846800699751024744299163
414,1.7480086271348469734655298654444
415,1.7484948982875479822833184193248
416,1.7489800038230671195927039588567
417,1.7494639493858795134509923986262
418,1.7499467405804353676721314961569
419,1.7504283829715519566099080766731
420,1.7509088820847985325025551412565
421,1.7513882434068780991747217660981
422,1.7518664723860053353651723623676
423,1.7523435744322785055141242631854
424,1.7528195549180489734764988127243
425,1.7532944191782847002969484471797
426,1.7537681725109313347118469284091
427,1.7542408201772683828702831801433
428,1.7547123674022604728729233415276
429,1.7551828193749076284690570919903
430,1.7556521812485874160214511215757
431,1.7561204581413964704398753085801
432,1.7565876551364885516995024136090
433,1.7570537772824044719900004714238
434,1.7575188295934049936328576211971
435,1.7579828170497945236979828001826
436,1.7584457445982435086198461861792
437,1.7589076171521076925496007365997
438,1.7593684395917432239315732433578
439,1.7598282167648182940937129555155
440,1.7602869534866223816108446906741
441,1.7607446545403702649038434486947
442,1.7612013246775043693928551721710
443,1.7616569686179950996421244504653
444,1.7621115910506337786760280185513
445,1.7625651966333275280049244427834
446,1.7630177899933871156600913553618
447,1.7634693757278149444374832457671
448,1.7639199584035864016510298395429
449,1.7643695425579324140847218749004
450,1.7648181326986153638477288022369
451,1.7652657333042058715748281222264
452,1.7657123488243532917527456081279
453,1.7661579836800556667675921173401
454,1.7666026422639255322331328892043
455,1.7670463289404552011829080883490
456,1.7674890480462768279246213325746
457,1.7679308038904219511690374491811
458,1.7683716007545769163369970698851
459,1.7688114428933366950751257426240
460,1.7692503345344567485496245262572
461,1.7696882798791007885690044383034
462,1.7701252831020876540350172341061
463,1.7705613483521359110582888254981
464,1.7709964797521043423330117050939
465,1.7714306813992322993165288210057
466,1.7718639573653770528595727077139
467,1.7722963116972474278770531171094
468,1.7727277484166387429172679594723
469,1.7731582715206615366833248331676
470,1.7735878849819716115540254839242
471,1.7740165927489956668607650435097
472,1.7744443987461568253522065062628
473,1.7748713068740954097112308821684
474,1.7752973210098924792620148822953
475,1.7757224450072850559278567259547
476,1.7761466826968855597293670730720
477,1.7765700378863957934854011443655
478,1.7769925143608201595602171559414
479,1.7774141158826770050849552905552
480,1.7778348461922084974813073770724
481,1.7782547090075875886187283513986
482,1.7786737080251256440489019706563
483,1.7790918469194761252067502869354
484,1.7795091293438371524363084347666
485,1.7799255589301544340692668664425
486,1.7803411392893191549247242742266
487,1.7807558740113676818595304179635
488,1.7811697666656776919407916085619
489,1.7815828208011639606977391206981
490,1.7819950399464716831398371042765
491,1.7824064276101694716475822775808
492,1.7828169872809406290626682687107
493,1.7832267224277726824086139103760
494,1.7836356365001462820260871823642
495,1.7840437329282216696849133627062
496,1.7844510151230259714939230975558
497,1.7848574864766370128740657408452
498,1.7852631503623676129484299411519
499,1.7856680101349478681457531384527
500,1.786072069130707568339737892199
501,1.786475330667754504787817757203
502,1.786877798046156138677459025471
503,1.787279474548116112464618254585
504,1.787680363438153462326905238595
505,1.788080467963277394145809381976
506,1.788479791353163368515792733027
507,1.788878336820328358706980324979
508,1.789276107560304937944185823886
509,1.789673106751812443815014999635
510,1.790069337556931290509261958522
511,1.790464803121273677992267215698
512,1.790859506574154616913648397238
513,1.791253451028761904203191763294
514,1.791646639582325745659086411467
515,1.792039075316288420313674994686
516,1.792430761296472218128033320864
517,1.792821700573246747680893170284
518,1.793211896181697421870376999341
519,1.793601351141791926970447621540
520,1.793990068458547556227506982702
521,1.794378051122196228200548561662
522,1.794765302108351491886311670420
523,1.795151824378173982479494405273
