Eigenstate,Potential Energy
1,0.500000000000042109172648696779110066
2,0.64623093765138974883278240170775961
3,0.73633760970578484273865125584159779
4,0.79966527781592740130480526790972034
5,0.8480465752886177656004652543803342
6,0.8870659968748070850919263547609790
7,0.9197208240109284291114661541014367
8,0.9477838430730205197062240016948732
9,0.9723835530668426513470191937871161
10,0.9942802081406436651038280932505403
11,1.0140093784352468785134857575176020
12,1.0319621592551286265463739022801204
13,1.0484326806659811577237139286133075
14,1.0636476403508575294840539382392709
15,1.0777854194243464589897895290268838
16,1.090988887303011152765465755426270
17,1.103374235166889685806650593000468
18,1.115037226965691899237744298264846
19,1.126057722522775318690215061687966
20,1.136503015169080444137028515242959
21,1.146430337824827127403859912469175
22,1.155888774158254136619755916105090
23,1.164920736522143399386873783936316
24,1.173563123354241858228400313480925
25,1.181848235973187634983672903057355
26,1.189804512386097609237402653089522
27,1.197457120251143121854081024052904
28,1.204828440236589710422553735968475
29,1.211938463222748965257811448785463
30,1.218805119143803027652199312338518
31,1.225444551120523753655255198456595
32,1.231871345457008983140371432809166
33,1.238098725764910550672249433568915
34,1.244138717728082409197419379387150
35,1.250002289681382172388647146662232
36,1.255699473143880503319223350403282
37,1.261239466642648228935792502849427
38,1.266630725532872316900968026552607
39,1.271881040022203202051708442286930
40,1.276997603211415166327278936376183
41,1.281987070646711202421995243141370
42,1.286855612624011190010812155267601
43,1.291608960279075868559055313254325
44,1.296252446329225075288316045346454
45,1.300791041194839147926657138523827
46,1.305229385115696109321648205842034
47,1.309571816783720638699670271850138
48,1.313822398936134470136955403639123
49,1.317984941288335314936519192632360
50,1.32206302113170869097287355988026
51,1.32606000187611007961143943027357
52,1.32997904977840961652494958336217
53,1.33382314906604140419548939462538
54,1.33759511563693840244510388319396
55,1.34129760949375836083493372238441
56,1.34493314605023168665515742667924
57,1.34850410643026317711545533817522
58,1.35201274686562235806011605772870
59,1.35546120728530322426160983189944
60,1.35885151917860966864807364039802
61,1.36218561280445866031911327587275
62,1.36546532381109222609379703701746
63,1.36869239932314740131679270969322
64,1.37186850354672083572874819218650
65,1.37499522293752990023602925391976
66,1.37807407097242480136268654105212
67,1.38110649256024391884306167957821
68,1.38409386812424842100622423532855
69,1.38703751738505954187764445319061
70,1.38993870287009363566069086690364
71,1.39279863317289142052990131859255
72,1.39561846598343958128925133834596
73,1.39839931090852989404547259415280
74,1.40114223209938218749449877969420
75,1.40384825070212635431641866172525
76,1.40651834714528906941964694350540
77,1.40915346327712847335714216289726
78,1.41175450436449428105770255612763
79,1.41432234096384395602337054096901
80,1.41685781067410746449985115853621
81,1.41936171978024378265030479608648
82,1.42183484479557087920967700135273
83,1.42427793391026216230717552814666
84,1.42669170835277808742850217815310
85,1.42907686367044234731588231848719
86,1.43143407093485619921479190432507
87,1.43376397787738701407636834492456
88,1.43606720995954375458901474686509
89,1.43834437138266858675121288945034
90,1.44059604604103061296834883753883
91,1.44282279842208626260571363048331
92,1.44502517445738257839081036255442
93,1.44720370232731738200244823921197
94,1.44935889322272737344608678340243
95,1.45149124206605406478587648807156
96,1.45360122819463562668754434119668
97,1.45568931600848838411650189882008
98,1.45775595558476882324114089653852
99,1.45980158326095349940187765783804
100,1.46182662218862789559074468507826
101,1.46383148285964597673163526057440
102,1.46581656360629661033039055026305
103,1.46778225107700511045103959113156
104,1.46972892068899089726393297524962
105,1.47165693705920919065493018001364
106,1.47356665441481389214081160389322
107,1.47545841698430072738083932607037
108,1.47733255937041048201999141090585
109,1.47918940690580357006516189992182
110,1.48102927599245475387070430804966
111,1.48285247442565097361104586200703
112,1.48465930170342581048469948273093
113,1.48645004932220857209995424130254
114,1.48822500105941723073610925196983
115,1.48998443324368399667161087071727
116,1.49172861501335397712223022199665
117,1.49345780856386565832564539907856
118,1.49517226938458091720318908479107
119,1.49687224648559855531333454597158
120,1.49855798261505950557637461519259
121,1.50022971446741359500562609711566
122,1.50188767288309883354767782505895
123,1.50353208304005200620217914701400
124,1.50516316463745166578305631086324
125,1.50678113207206505741987330644435
126,1.50838619460755530860056196257805
127,1.50997855653708464067030468444721
128,1.51155841733952677051146577691667
129,1.51312597182958959789140932842534
130,1.51468141030213089209772252792436
131,1.51622491867093428736230201150705
132,1.51775667860219791937491189818620
133,1.51927686764297625360310520734409
134,1.52078565934480438017612324753588
135,1.52228322338271594174824629060858
136,1.52376972566986217322669515241486
137,1.52524532846792622430528950724957
138,1.52671019049351332375482817423696
139,1.52816446702069523851534356719999
140,1.52960830997987203466709568052420
141,1.53104186805310958986742448788914
142,1.53246528676610323357318392689047
143,1.53387870857690924119945655098363
144,1.53528227296157872872809994964628
145,1.53667611649682430652072869862107
146,1.53806037293984198233960879966369
147,1.53943517330540260061409998824238
148,1.54080064594032814695695723121135
149,1.54215691659545471886028310715757
150,1.54350410849518580342415439790319
151,1.54484234240473177634660266825397
152,1.54617173669512592131956174278797
153,1.54749240740610591949827533128570
154,1.54880446830694470825997961710188
155,1.55010803095530894521764055295746
156,1.55140320475422294382456847562447
157,1.55269009700720912714585089367647
158,1.55396881297167681786971989641423
159,1.5552394559106230373643213321001
160,1.5565021271427116512893787466835
161,1.5577569260907893578536515092833
162,1.5590039503288979797893452831586
163,1.5602432956278379133128276667100
164,1.5614750559993373706363145659121
165,1.5626993237388760162180011359216
166,1.5639161894672135123094157252264
167,1.5651257421706702060891087628909
168,1.5663280692402026472659329935920
169,1.5675232565093189982125801977504
170,1.5687113882908740797145593557963
171,1.5698925474127842467654582616067
172,1.5710668152526999610359458111083
173,1.5722342717716714623172241834007
174,1.5733949955468433824224908870964
175,1.5745490638032122864491955395465
176,1.5756965524444768477245933939276
177,1.5768375360830139169417237853829
178,1.5779720880690096398516532570824
179,1.5791002805187720684274037090074
180,1.5802221843422562118680365050608
181,1.5813378692698241759986245797302
182,1.5824474038782680864210132892141
183,1.5835508556161188446586910070844
184,1.5846482908282649588013163737953
185,1.5857397747799032567413587836530
186,1.5868253716798424505917469723879
187,1.5879051447031833527507080336697
188,1.5889791560133911798974439856981
189,1.5900474667837836759751151918179
190,1.5911101372184507052045511236053
191,1.5921672265726245376459373016886
192,1.5932187931725172094760576733982
193,1.5942648944346432617932072767488
194,1.5953055868846411986957218894417
195,1.5963409261756115969558673456930
196,1.5973709671059855591512071975513
197,1.5983957636369378855362670909388
198,1.5994153689093591265952353316593
199,1.6004298352603993500905444344797
200,1.6014392142395975627680229435786
201,1.6024435566246077630968878407417
202,1.6034429124365350011552060555968
203,1.6044373309548921003426698853121
204,1.6054268607321886557813734415979
205,1.6064115496081622747164265739958
206,1.6073914447236650776124718907211
207,1.6083665925342113305713084089967
208,1.6093370388232004304746080866769
209,1.6103028287148209856788126964572
210,1.6112640066866474878606820981977
211,1.6122206165819369339693835382391
212,1.6131727016216356254067195658405
213,1.6141203044161005223226264566919
214,1.6150634669765501287092674041801
215,1.6160022307262441145175277121013
216,1.6169366365114056292459676388873
217,1.6178667246118902660370679018079
218,1.6187925347516106487230810006004
219,1.6197141061087199147495988437563
220,1.6206314773255666020970447328147
221,1.6215446865184188424818611497168
222,1.6224537712869750581948668244124
223,1.6233587687236547233999085511924
224,1.6242597154226842491827215158304
225,1.6251566474889805488840647668593
226,1.6260496005468358216497363519156
227,1.6269386097484121970352485904573
228,1.6278237097820480508559081196892
229,1.6287049348803831444170421219289
230,1.6295823188283072733519859684989
231,1.6304558949707342153216786481817
232,1.6313256962202113854796683621958
233,1.6321917550643601851900947468726
234,1.6330541035731631900473117840382
235,1.6339127734060913482799755912501
236,1.6347677958190808882903707125529
237,1.6356192016713635554380324871106
238,1.6364670214321519090609061052512
239,1.6373112851871851152953439413773
240,1.6381520226451373890928020624280
241,1.6389892631438933667624886149823
242,1.6398230356566932649701815058060
243,1.6406533687981518569456328419314
244,1.6414802908301529541142948944254
245,1.6423038296676237662428490357219
246,1.6431240128841916586446715942520
247,1.6439408677177246882093455066687
248,1.6447544210757634987883521865299
249,1.6455646995408395444306200741450
250,1.6463717293756900245663815688650
251,1.6471755365283674305440932513237
252,1.6479761466372465014132648217924
253,1.6487735850359336605489232282802
254,1.6495678767580785893673538112085
255,1.6503590465420918175554919800267
256,1.6511471188357684145729713647358
257,1.6519321178008241731640959210637
258,1.6527140673173407289308771834333
259,1.6534929909881264188101650888976
260,1.6542689121429932641517156544798
261,1.6550418538429503914469821147658
262,1.6558118388843186154327750682168
263,1.6565788898027650344493864998900
264,1.6573430288772630882030547634917
265,1.6581042781339766024576785453584
266,1.6588626593500699876851489265171
267,1.6596181940574478042033924024475
268,1.6603709035464237267979324372575
269,1.6611208088693231780231680761703
270,1.6618679308440153536043369243265
271,1.6626122900573839231733732400537
272,1.6633539068687303851791428184426
273,1.6640928014131175183631894846460
274,1.6648289936046501380946092745002
275,1.6655625031396970324199229376677
276,1.6662933495000523554560374382596
277,1.6670215519560439614164118319430
278,1.6677471295695804331939405240733
279,1.6684701011971483079446802632200
280,1.6691904854927515925180136553312
281,1.6699083009108014575359713605391
282,1.6706235657089536063695701811477
283,1.6713362979508965314381419746926
284,1.6720465155090878143463371265080
285,1.6727542360674452770987640097554
286,1.6734594771239890091173403625859
287,1.6741622559934393293316211235100
288,1.6748625898097670850977003622391
289,1.6755604955287009359893058127378
290,1.6762559899301923549676154730494
291,1.6769490896208361878496197525698
292,1.6776398110362496559606600968898
293,1.6783281704434137077253472265902
294,1.6790141839429717560902296262009
295,1.6796978674714878889029809776314
296,1.6803792368036721377866857271056
297,1.6810583075545627372134790716490
298,1.6817350951816746905080645069006
299,1.6824096149871114456153082919469
300,1.6830818821196414312142372009089
301,1.6837519115767398645926445614533
302,1.6844197182065979241915572324353
303,1.6850853167100964599247098477152
304,1.6857487216427478187786428709706
305,1.6864099474166072141961469265035
306,1.6870690083021529024392984229500
307,1.6877259184301323478813498553314
308,1.6883806917933818556524371843221
309,1.6890333422486157609004704636630
310,1.6896838835181855098099561065675
311,1.6903323291918122272776531774132
312,1.6909786927282902843731904448462
313,1.6916229874571632583302876793709
314,1.6922652265803740893377787626257
315,1.6929054231738887537695250359587
316,1.6935435901892948294915657178735
317,1.6941797404553724918473483386221
318,1.6948138866796432915620988159863
319,1.6954460414498938561243733835845
320,1.6960762172356745158991238072927
321,1.6967044263897767739027099249438
322,1.6973306811496857336664493553238
323,1.6979549936390109992244247597301
324,1.6985773758688950243606239461229
325,1.6991978397394006730927101340455
326,1.6998163970408762286145525180860
327,1.7004330594553006714494085797634
328,1.7010478385576064160037494377023
329,1.7016607458169844803764204153444
330,1.7022717925981685210848856569101
331,1.7028809901626991712805670268004
332,1.7034883496701697436730952523196
333,1.7040938821794536766964846282635
334,1.7046975986499119079187466273331
335,1.7052995099425844896051183174838
336,1.7058996268213625044642859669363
337,1.7064979599541431538009080950001
338,1.7070945199139690769043845354558
339,1.7076893171801479661583120869951
340,1.7082823621393585691882626857420
341,1.7088736650867387916029667618804
342,1.7094632362269583974557844020199
343,1.7100510856752759451930891674978
344,1.7106372234585799527739024056853
345,1.7112216595164161112721937026949
346,1.7118044037019980217341002271737
347,1.7123854657832050206259662640237
348,1.7129648554435639055743639228657
349,1.7135425822832181063000573438757
350,1.7141186558198818430634100200897
351,1.7146930854897813602028706161880
352,1.7152658806485829171087549702481
353,1.7158370505723068209881610067792
354,1.7164066044582289158752794058221
355,1.7169745514257698931486383337483
356,1.7175409005173706333221957790850
357,1.7181056606993568181328190989481
358,1.7186688408627920569101884837795
359,1.7192304498243152723524668773399
360,1.7197904963269712836117384296577
361,1.7203489890410263315437936581772
362,1.7209059365647750277073938210238
363,1.7214613474253333227121932537844
364,1.7220152300794225178950919225883
365,1.7225675929141425566782644180075
366,1.7231184442477334732653675130550
367,1.7236677923303278906730266981841
368,1.7242156453446913568134742961027
369,1.7247620114069551511614225375604
370,1.7253068985673372751679146393258
371,1.7258503148108544797182971362598
372,1.7263922680580242861013361691681
373,1.7269327661655569671935497676028
374,1.7274718169270417973264189382830
375,1.7280094280736182623947446404816
376,1.7285456072746436864103318355817
377,1.7290803621383490636997218186974
378,1.7296137002124862641466114463056
379,1.7301456289849684512686837237571
380,1.7306761558845004698822993225336
381,1.7312052882812020787791842026021
382,1.7317330334872211465736578345067
383,1.7322593987573414853699393630870
384,1.7327843912895802859387278454266
385,1.7333080182257787756453938683780
386,1.7338302866521867577702282348400
387,1.7343512036000367815437510036750
388,1.7348707760461118796817136220018
389,1.7353890109133075480912176798650
390,1.7359059150711851568384841604950
391,1.7364214953365171093033732095106
392,1.7369357584738273578808547558863
393,1.7374487111959247496992628056725
394,1.7379603601644277834346949063542
395,1.7384707119902836340765303582069
396,1.7389797732342810964934524069394
397,1.7394875504075570776896122578345
398,1.7399940499720966458668291992764
399,1.7404992783412252020649875610550
400,1.7410032418800970743192322439928
401,1.7415059469061765832344801496552
402,1.7420073996897123241740722779902
403,1.7425076064542074867831765435371
404,1.7430065733768841049167058690121
405,1.7435043065891387023971885552302
406,1.7440008121769954436172552333528
407,1.7444960961815539056866772936970
408,1.7449901645994289752979973926036
409,1.7454830233831857313673768870495
410,1.7459746784417718279085406376811
411,1.7464651356409416371376850626962
412,1.7469544008036757353778913030045
413,1.7474424797105968108020937661407
414,1.7479293781003784168394716261863
415,1.7484151016701508551870211498816
416,1.7488996560759006180387241917951
417,1.7493830469328662379982673146397
418,1.7498652798159277088905839738084
419,1.7503463602599937559631270244352
420,1.7508262937603819373779943131617
421,1.7513050857731955291572629775663
422,1.7517827417156964751629986587282
423,1.7522592669666722382308995864932
424,1.7527346668668001661604114278462
425,1.7532089467190057518999003722236
426,1.7536821117888183947448088690161
427,1.7541541673047221471562129276316
428,1.7546251184585014608647134028560
429,1.7550949704055858446244786680427
430,1.7555637282653862956995546302380
431,1.7560313971216310087128996787026
432,1.7564979820226975113479315502983
433,1.7569634879819365647751508075214
434,1.7574279199779989267157518245759
435,1.7578912829551528007910962067687
436,1.7583535818235998731218755997351
437,1.7588148214597880975208787299141
438,1.7592750067067202113157703853952
439,1.7597341423742586630794734275418
440,1.7601922332394280234536363562633
441,1.7606492840467120388893890469565
442,1.7611052995083488919230577109369
443,1.7615602843046243156528404090245
444,1.7620142430841571817577583944342
445,1.7624671804641868926869701008258
446,1.7629191010308536023381358178658
447,1.7633700093394784343620550745127
448,1.7638199099148369162628773472191
449,1.7642688072514334697666242584456
450,1.7647167058137691098660739615341
451,1.7651636100366098556030111627122
452,1.7656095243252486939023718736414
453,1.7660544530557668394954134876927
454,1.7664984005752906798465797352050
455,1.7669413712022480289204144229749
456,1.7673833692266189867524648133351
457,1.7678243989101861004945192987041
458,1.7682644644867802227940847480045
459,1.7687035701625245813957954839422
460,1.7691417201160767022700024368791
461,1.7695789184988660359553528643953
462,1.7700151694353305001271904490189
463,1.7704504770231505421234336026238
464,1.7708848453334788822948777927189
465,1.7713182784111699068752083144165
466,1.7717507802750058410272384125191
467,1.7721823549179189825410431611285
468,1.7726130063072150117832217496993
469,1.7730427383847898545527667639649
470,1.7734715550673476223419100100039
471,1.7738994602466138970660986226040
472,1.7743264577895486578317739285383
473,1.7747525515385542006006866021230
474,1.7751777453116855547001927621239
475,1.7756020429028523188896673790118
476,1.7760254480820244307429581188480
477,1.7764479645954322022974023018804
478,1.7768695961657652979108552004514
479,1.7772903464923695436636662470056
480,1.7777102192514419628379374884071
481,1.7781292180962225883000530198814
482,1.7785473466571866205236445215076
483,1.7789646085422323111987916195264
484,1.7793810073368673921310216388491
485,1.7797965466043955262529976170114
486,1.7802112298860973654890243731545
487,1.7806250607014130641992270535602
488,1.7810380425481208446348245457352
489,1.7814501789025148424472924432301
490,1.7818614732195800952380201296371
491,1.7822719289331668082902563094453
492,1.7826815494561624855264734788994
493,1.7830903381806619005545189982858
494,1.7834982984781360016939982369496
495,1.7839054336995979433281382092806
496,1.7843117471757694878487674492308
497,1.7847172422172434635597485881885
498,1.7851219221146462236338868387461
499,1.7855257901387976032833423164040
500,1.785928849540870505452154534440
501,1.786331103552545860874823583923
502,1.786732555386170417484881207835
503,1.787133208234908827097213566015
504,1.787533065272897872997061051362
505,1.787932129655395685691256292711
506,1.788330404518931676696083060054
507,1.788727892981455038171496160530
508,1.789124598142481448139431296510
509,1.789520523083236211950567044565
510,1.789915670866799893007981633859
511,1.790310044538249663591394642012
512,1.790703647124800275744583736413
513,1.791096481635943267727438612993
514,1.791488551063585082260232640603
515,1.791879858382184470622767178055
516,1.792270406548887392761149603050
517,1.792660198503660487957218877088
518,1.793049237169424901262641598945
519,1.793437525452187247457981004134
520,1.793825066241170569356525999957
521,1.794211862408942085497902052065
522,1.794597916811542003249134837561
523,1.794983232288609834287047548055
