Eigenstate,Potential Energy
1,0.500000000027291888354680833200280588
2,0.64623093782926176359841985481494069
3,0.73633761022826796998207935549678507
4,0.79966527890419563445844253628227896
5,0.8480465771737111977159832664847514
6,0.8870659997918030392761888672048487
7,0.9197208281967923636608212242452578
8,0.9477838487657084466361740014406873
9,0.9723835605048825476324846761925233
10,0.9942802175629219034017391684680692
11,1.0140093900808911710179028705209188
12,1.0319621733634401498319558407679282
13,1.0484326974763934512829683648217471
14,1.0636476601029108019573184773331300
15,1.0777854423576711889628879709230653
16,1.090988913657317527364735141686092
17,1.103374265181960836124487672032547
18,1.115037260881379681434300653777762
19,1.126057760578997848133770858491464
20,1.136503057605820865638401122314637
21,1.146430384882133275601523314180401
22,1.155888826076238849619102346276743
23,1.164920793540985320045556725001366
24,1.173563185714186605139392414011050
25,1.181848303914549257722978712783954
26,1.189804586149260265039128889078241
27,1.197457200076562926844386133593180
28,1.204828526364796730004635225818482
29,1.211938555894349316582581985616385
30,1.218805218599481073261790378896482
31,1.225444657601044369979018707557850
32,1.231871459203219890989681533710119
33,1.238098847017744697524562934597070
34,1.244138846728560395096487540461360
35,1.250002426670614712870432912443250
36,1.255699618363070924013499088999386
37,1.261239620333094987473405248362194
38,1.266630887935971548536743066304347
39,1.271881211379451286038161086384054
40,1.276997783764411310578785563846949
41,1.281987260637160044418610796078121
42,1.286855812293725412225458325408398
43,1.291609169869978826966545457261322
44,1.296252666083353439741514476586030
45,1.300791271354345553373316316412262
46,1.305229625922851816992470275564753
47,1.309572068480918206529592025397776
48,1.313822661765890431792321014465825
49,1.317985215493292866914242250694429
50,1.32206330695464038731696039619802
51,1.32606029955992053385978042515446
52,1.32997935956613821055694538531142
53,1.33382347120086500370054091705132
54,1.33759545036217407877459580740352
55,1.34129795705286611903706689057690
56,1.34493350668681719952383654767785
57,1.34850448038808052511203032571973
58,1.35201313438857677499098123686692
59,1.35546160861745384861557857736700
60,1.35885193456417230051597212223182
61,1.36218604248780852383419734009236
62,1.36546576803676673734591771248683
63,1.36869285833584894170579431905657
64,1.37186897759131953073371792517653
65,1.37499571225906640358702545688214
66,1.37807457581611308461027581237200
67,1.38110701317147406632891045337767
68,1.38409440474858943024498759471908
69,1.38703807026826212936678421033966
70,1.38993927225809304814032418191514
71,1.39279921931181025172011354636238
72,1.39561906911959059413667155894588
73,1.39839993128841884851524972229692
74,1.40114286996971067394747106128099
75,1.40384890630979463251478034197386
76,1.40651902073739891320744165113402
77,1.40915415510098602106484620509210
78,1.41175521466761289168272154864557
79,1.41432306999394707124072099183900
80,1.41685855867913147655939563697060
81,1.41936248700834090821906261388380
82,1.42183563149511203921953608650042
83,1.42427874032983986787007581702416
84,1.42669253474120933188278977433357
85,1.42907771027677150446905788358455
86,1.43143493800835792784920686384003
87,1.43376486566756916878585434180772
88,1.43606811871615030301557530187971
89,1.43834530135568253329209978971430
90,1.44059699748067692902493751186630
91,1.44282377157883482344666509892665
92,1.44502616958195110670293113431662
93,1.44720471967067439820365633333550
94,1.44935993303609515283574756108128
95,1.45149230460091160160867907057192
96,1.45360231370272160518780132006218
97,1.45569042474180415666071886028485
98,1.45775708779558139558725714620656
99,1.45980273920179852319451296290944
100,1.46182780211231266816233461607801
101,1.46383268701925244829014221914921
102,1.46581779225518439861490583676374
103,1.46778350446881452293716700837208
104,1.46973019907764596100170574895065
105,1.47165824069892068982238048038124
106,1.47356798356008241339708917083462
107,1.47545977188991971310334402145439
108,1.47733394029146929151051939151919
109,1.47919081409769054881077027901892
110,1.48103070971086031094544566775653
111,1.48285393492657066730538499863470
112,1.48466078924316344224997628302692
113,1.48645156415737928889577005723673
114,1.48822654344695063586913257959983
115,1.48998600344082726921482715394337
116,1.49173021327767500000421478412988
117,1.49345943515325615517995388485034
118,1.49517392455725959806860631629875
119,1.49687393050011427127613016393312
120,1.49855969573029441244638183939296
121,1.50023145694258632611845611995285
122,1.50188944497776768178591228501277
123,1.50353388501411811532898504947110
124,1.50516499675116223118213252339597
125,1.50678299458601653633628620268578
126,1.50838808778269663997750082369746
127,1.50998048063472047467737796920799
128,1.51156037262132070786073257564939
129,1.51312795855756743903783774040631
130,1.51468342873868389642137147673530
131,1.51622696907882244243006765219205
132,1.51775876124455322038036591629199
133,1.51927898278330599308322172284449
134,1.52078780724699444810459951484774
135,1.52228540431103413610558779412882
136,1.52377193988896152114763529554482
137,1.52524757624284831390498792820798
138,1.52671247208969164673569553357380
139,1.52816678270395854365699048874126
140,1.52961066001644769230255399308839
141,1.53104425270962696744920357236548
142,1.53246770630959708243361209566378
143,1.53388116327482309461011401072937
144,1.53528476308176831136400113872148
145,1.53667864230756095543527514177756
146,1.53806293470981607955719855475800
147,1.53943777130372701744783018554302
148,1.54080328043654170015938395368978
149,1.54215958785952563871607024404243
150,1.54350681679751521389383705736896
151,1.54484508801615718737163106304003
152,1.54617451988692473339919531101116
153,1.54749522844999894064977138212413
154,1.54880732747509968347399159655880
155,1.55011092852034409852157426664454
156,1.55140614098921053306741064760257
157,1.55269307218567901161839185898948
158,1.55397182736762003887504832238730
159,1.5552425097984954118540856134390
160,1.5565052207974373786820090555948
161,1.5577600597877646401514804809779
162,1.5590071243439946551123651851919
163,1.5602465102374071029673292954350
164,1.5614783114802131398376485118874
165,1.5627026203683790485874314320759
166,1.5639195275231547982655365915961
167,1.5651291219313547452552928854339
168,1.5663314909844331650161258827514
169,1.5675267205163996764781614696461
170,1.5687148948406143021762772794319
171,1.5698960967855023585547534202093
172,1.5710704077292270430711977941707
173,1.5722379076333551204008918386930
174,1.5733986750755515512262242786290
175,1.5745527872813370485147111542679
176,1.5757003201549382676089183209369
177,1.5768413483092638906362754784728
178,1.5779759450950357596054847544690
179,1.5791041826291015031057909288612
180,1.5802261318219596029784528115457
181,1.5813418624045195495170224318147
182,1.5824514429541247805522139320953
183,1.5835549409198614536655736607168
184,1.5846524226471772930383780785000
185,1.5857439534018323190293241474201
186,1.5868295973932024290703649186147
187,1.5879094177969596303483453649789
188,1.5889834767771443605566148290513
189,1.5900518355076536277742685224564
190,1.5911145541931606205172886834549
191,1.5921716920894850104798026008160
192,1.5932233075234303301340889220740
193,1.5942694579121067290022945757424
194,1.5953101997817524493470054518545
195,1.5963455887860719536031425141871
196,1.5973756797241043954145884779327
197,1.5984005265576368095592500510501
198,1.5994201824281761827042572820654
199,1.6004346996734932388074520981796
200,1.6014441298437518793266234412188
201,1.6024485237172352546158630236932
202,1.6034479313156818426210680882940
203,1.6044424019192421895570110863749
204,1.6054319840810679274282776838638
205,1.6064167256415430337065072303899
206,1.6073966737421703518615776027844
207,1.6083718748391192433728055632657
208,1.6093423747164485926253309074137
209,1.6103082184990109075199969789282
210,1.6112694506650490113963262962697
211,1.6122261150584926852255890161182
212,1.6131782549009654871967792327886
213,1.6141259128035061275839964656385
214,1.6150691307780193745794661971809
215,1.6160079502484556973174973607231
216,1.6169424120617336005405341955801
217,1.6178725564984086099434260482072
218,1.6187984232830978806393761144339
219,1.6197200515946637016772150836602
220,1.6206374800761684047311908270884
221,1.6215507468445985792465167385678
222,1.6224598895003757913994809332934
223,1.6233649451366473676964452459651
224,1.6242659503483723025030039220536
225,1.6251629412412048460389464942531
226,1.6260559534401793107726221236193
227,1.6269450220982047390541009586872
228,1.6278301819043712421792866171395
229,1.6287114670920751630209683354131
230,1.6295889114469677484559914220851
231,1.6304625483147291208437138650186
232,1.6313324106086779574611488938990
233,1.6321985308172118633835912559279
234,1.6330609410110945838611695830479
235,1.6339196728505832272753263105472
236,1.6347747575924051974276357209233
237,1.6356262260965884552717373000694
238,1.6364741088331468410827935031871
239,1.6373184358886258926275047870395
240,1.6381592369725113127342992140601
241,1.6389965414235043675942155728825
242,1.6398303782156670717242915353119
243,1.6406607759644411903479214784892
244,1.6414877629325427474090185401481
245,1.6423113670357364123113592366150
246,1.6431316158484922839310617826511
247,1.6439485366095264536676042846850
248,1.6447621562272329280675773981800
249,1.6455725012850018795162748587783
250,1.6463795980464346090975317257571
251,1.6471834724604531210282800956649
252,1.6479841501663071065622199552807
253,1.6487816564984834089603086693016
254,1.6495760164915176257796350357651
255,1.6503672548847117279044585237543
256,1.6511553961267577800807651833542
257,1.6519404643802741536930591525580
258,1.6527224835262506758365866352592
259,1.6535014771684095175298914067898
260,1.6542774686374822067664304892266
261,1.6550504809954030794570983705293
262,1.6558205370394238929896003601496
263,1.6565876593061484522862400410040
264,1.6573518700754926985121508828886
265,1.6581131913745687849607773169275
266,1.6588716449814953071479516880721
267,1.6596272524291368996458216402980
268,1.6603800350087732326545977963202
269,1.6611300137737016775100853656627
270,1.6618772095427693645504897286876
271,1.6626216429038439165775086993279
272,1.6633633342172168367546799255935
273,1.6641023036189469933359439915130
274,1.6648385710241414095205399500498
275,1.6655721561301772332920584095408
276,1.6663030784198631648724495385275
277,1.6670313571645478250827975884998
278,1.6677570114271668185371037506856
279,1.6684800600652399941153122657343
280,1.6692005217338109955636106701557
281,1.6699184148883369910271543487111
282,1.6706337577875260777652929695881
283,1.6713465684961255744777678707956
284,1.6720568648876583577589380645892
285,1.6727646646471140499229577021459
286,1.6734699852735910829265484730405
287,1.6741728440828946976629733218993
288,1.6748732582100872803850772472015
289,1.6755712446119956843033657848702
290,1.6762668200696762688686923167382
291,1.6769600011908354976615539009569
292,1.6776508044122089797766897250349
293,1.6783392460019028604593461451606
294,1.6790253420616925978901829832635
295,1.6797091085292812132451618796040
296,1.6803905611805245995726490073525
297,1.6810697156316138211945754940261
298,1.6817465873412237203646965571053
299,1.6824211916126246340213762703768
300,1.6830935435957589712198920980378
301,1.6837636582892830626616286806928
302,1.6844315505425763752319642134338
303,1.6850972350577152646553038462022
304,1.6857607263914148437756573982318
305,1.6864220389569403949689041130098
306,1.6870811870259875898854714615160
307,1.6877381847305286984763749479763
308,1.6883930460646322657303263874423
309,1.6890457848862523453867351980757
310,1.6896964149189876257702031203928
311,1.6903449497538140426488373098699
312,1.6909914028507883922482227120541
313,1.6916357875407243371691602738754
314,1.6922781170268426094821804615765
315,1.6929184043863947306413977814706
316,1.6935566625722616238593497534114
317,1.6941929044145246575468711956664
318,1.6948271426220144710630175833011
319,1.6954593897838347243361732993834
320,1.6960896583708607726146021930304
321,1.6967179607372171852800369980872
322,1.6973443091217302231552110383942
323,1.6979687156493587883437928971594
324,1.6985911923326028237424598603427
325,1.6992117510728909242055557396290
326,1.6998304036619453965886663490298
327,1.7004471617831275894262898255381
328,1.7010620370127606814381100824566
329,1.7016750408214349037221586461180
330,1.7022861845752916273005781540887
331,1.7028954795372877545940581861799
332,1.7035029368684414760488097677614
333,1.7041085676290597704531938210789
334,1.7047123827799458329497460469458
335,1.7053143931835907456567058997076
336,1.7059146096053454489329364466954
337,1.7065130427145758855138312505486
338,1.7071097030858023763522718511066
339,1.7077046011998192926533785813206
340,1.7082977474448011154254390571537
341,1.7088891521173905961064837405375
342,1.7094788254237715153977366390757
343,1.7100667774807256780753340965836
344,1.7106530183166741374689823684927
345,1.7112375578727044689239550806655
346,1.7118204060035815670234488078005
347,1.7124015724787455319114684526826
348,1.7129810669832934564229031344751
349,1.7135588991189486589269150918766
350,1.7141350784050149042071186667903
351,1.7147096142793176999637698493283
352,1.7152825160991323512865019617954
353,1.7158537931420980574578413407304
354,1.7164234546071194655472936421415
355,1.7169915096152560460623844104004
356,1.7175579672105975004290568306854
357,1.7181228363611284393295015049875
358,1.7186861259595815758884529208046
359,1.7192478448242751788370031984420
360,1.7198080016999437235633998592737
361,1.7203666052585534859109518446190
362,1.7209236641001095603139028541950
363,1.7214791867534488978761701291617
364,1.7220331816770243883780928723761
365,1.7225856572596782225711111123086
366,1.7231366218214034124220457854965
367,1.7236860836140963613099434799034
368,1.7242340508222972728984190221323
369,1.7247805315639230312214176114020
370,1.7253255338909882651523793289791
371,1.7258690657903174505592829763388
372,1.7264111351842470066198214412623
373,1.7269517499313173530062845287642
374,1.7274909178269592364150502067865
375,1.7280286466041650180049286582566
376,1.7285649439341563779552973774337
377,1.7290998174270402263500719277780
378,1.7296332746324559877936278301204
379,1.7301653230402160995564935253225
380,1.7306959700809364800103884389973
381,1.7312252231266598427844164133774
382,1.7317530894914689748071381309994
383,1.7322795764320946528924508869074
384,1.7328046911485131625643244806126
385,1.7333284407845370403715094177347
386,1.7338508324283996983387104523254
387,1.7343718731133296798858165505223
388,1.7348915698181184840070198190829
389,1.7354099294676826323886867389925
390,1.7359269589336171685647365100862
391,1.7364426650347409060421231129188
392,1.7369570545376370337650006800075
393,1.7374701341571865523949487308455
394,1.7379819105570931224952606093986
395,1.7384923903504021814821306780092
396,1.7390015801000139802008403958642
397,1.7395094863191901690247371387845
398,1.7400161154720539416014392488408
399,1.7405214739740823020272913206328
400,1.7410255681925947553973686033860
401,1.7415284044472344706401204600739
402,1.7420299890104426608431461726545
403,1.7425303281079290017986699795809
404,1.7430294279191359818487990165310
405,1.7435272945776946484644485649825
406,1.7440239341718778605825730769144
407,1.7445193527450481634109058934035
408,1.7450135562960977888836433383691
409,1.7455065507798836428349238760593
410,1.7459983421076597933575914192369
411,1.7464889361475017203549385021730
412,1.7469783387247259088643575349237
413,1.7474665556223058652020668381445
414,1.7479535925812809797641186232264
415,1.7484394553011625204358217645696
416,1.7489241494403331862330190623498
417,1.7494076806164430696510048187191
418,1.7498900544067991909484685410506
419,1.7503712763487528828673825075314
420,1.7508513519400800077012036016100
421,1.7513302866393579588857399282334
422,1.7518080858663387287047079251617
423,1.7522847550023158782407809940625
424,1.7527602993904890232870303421172
425,1.7532347243363222155686173559700
426,1.7537080351078998261048413008982
427,1.7541802369362774153312937956693
428,1.7546513350158276036591915451993
429,1.7551213345045848548491682621251
430,1.7555902405245820342940614674459
431,1.7560580581621862458540709092228
432,1.7565247924684310967469825007324
433,1.7569904484593407283792783550192
434,1.7574550311162567110428207073912
435,1.7579185453861556261395742485670
436,1.7583809961819652369122476177685
437,1.7588423883828774090376200777775
438,1.7593027268346567631336408249503
439,1.7597620163499457404717072824654
440,1.7602202617085671530935632595615
441,1.7606774676578213781720864311190
442,1.7611336389127817602477528259761
443,1.7615887801565878690221935461552
444,1.7620428960407312320640535700536
445,1.7624959911853428730719504821640
446,1.7629480701794736800273642496872
447,1.7633991375813747723907225019005
448,1.7638491979187710855261740372094
449,1.7642982556891360128430412301096
450,1.7647463153599592580788966602657
451,1.7651933813690154008010547984255
452,1.7656394581246260164580074286801
453,1.7660845500059210940350612299658
454,1.7665286613630961402448761574008
455,1.7669717965176685941080530208981
456,1.7674139597627288489036069694416
457,1.7678551553631905771786768398746
458,1.7682953875560367546944735733902
459,1.7687346605505638972152296241088
460,1.7691729785286241524627935195865
461,1.7696103456448630969431819789060
462,1.7700467660269564506754224011183
463,1.7704822437758443135738623839217
464,1.7709167829659610843700046551720
465,1.7713503876454650307887512219310
466,1.7717830618364646416561304537891
467,1.7722148095352410414335308227053
468,1.7726456347124714827989028107797
469,1.7730755413134463939505638587659
470,1.7735045332582875051535887714431
471,1.7739326144421613216135669966380
472,1.7743597887354922402687238456692
473,1.7747860599841706613803649776440
474,1.7752114320097635988936514120133
475,1.7756359086097167123012288803484
476,1.7760594935575602737923989546255
477,1.7764821906031094036613086513269
478,1.7769040034726632499393159422085
479,1.7773249358692020016115105798832
480,1.7777449914725821299748835811330
481,1.7781641739397284089871470502752
482,1.7785824869048262833692606192078
483,1.7789999339795099644315266211381
484,1.7794165187530490733528850487646
485,1.7798322447925353087616404407747
486,1.7802471156430637233839631360644
487,1.7806611348279154585130810300632
488,1.7810743058487365327581167509207
489,1.7814866321857159131415874472843
490,1.7818981172977607315607237477943
491,1.7823087646226707807810184289743
492,1.7827185775773108780347063572266
493,1.7831275595577810711157035687565
494,1.7835357139395857808913233107851
495,1.7839430440778000726053106302669
496,1.7843495533072363002710163287587
497,1.7847552449426068095485086495067
498,1.7851601222786866442330837711839
499,1.7855641885904737535454015060653
500,1.785967447133348830563266606804
501,1.786369901143230527671956167855
502,1.786771553836733504048609645435
503,1.787172408411320773138634878850
504,1.787572468045458193788368589551
505,1.787971735898763952325978153431
506,1.788370215112158765497771876074
507,1.788767908808014652104447459577
508,1.789164820090301913111457655929
509,1.789560952044732550932994492646
510,1.789956307738906180933957100633
511,1.790350890222451666032059833324
512,1.790744702527168374398124338456
513,1.791137747667165675795666642819
514,1.791530028639001352824953792484
515,1.791921548421819301173285888258
516,1.792312309977484729064660291981
517,1.792702316250717930502988318923
518,1.793091570169228417552586962059
519,1.793480074643846193456838745078
520,1.793867832568653023457439266236
521,1.794254846821110498401755232085
522,1.794641120262189167199035563879
523,1.795026655736495175142903995475
