Eigenstate,Potential Energy
1,0.500000000150158618062147297247426894
2,0.64623093863127664470367172492633777
3,0.73633761258414431699934093998073665
4,0.79966528381128083613309674612468323
5,0.8480465856739277048210647725694381
6,0.8870660129453974312645313867541466
7,0.9197208470726762103768954906417257
8,0.9477838744374421613349711146581222
9,0.9723835940488190069623703216033465
10,0.9942802600572745143493390837575656
11,1.0140094426052371404462886354982762
12,1.0319622369984455418235467461452136
13,1.0484327733036590018919815018889046
14,1.0636477492048872455314233881967904
15,1.0777855458176165351899129333073158
16,1.090989032559280705642145539977663
17,1.103374400610782507706947606739308
18,1.115037413922704581101337957947571
19,1.126057932319295084601231092975828
20,1.136503249132409853065899356268934
21,1.146430597283213739620962392685472
22,1.155889060440923843026992741223959
23,1.164921050959336504765455269477215
24,1.173563467277251271980372827685394
25,1.181848610714398702092190986401627
26,1.189804919279029238670388395118591
27,1.197457560630489957626988783512832
28,1.204828915438265153690976693443502
29,1.211938974583928901787528746097656
30,1.218805668002970148926246995832148
31,1.225445138817512385195810245370468
32,1.231871973333050352738958910972167
33,1.238099395162678443806705282791237
34,1.244139429991739170151260951984334
35,1.250003046156625018326247004578432
36,1.255700275177988125422876809191403
37,1.261240315584527660129321173175129
38,1.266631622733106050001482227486499
39,1.271881986833096545656022966385424
40,1.276998600987043828539648193225024
41,1.281988120742969094807681123593456
42,1.286856716398658446025048787430120
43,1.291610119091787072237312811243644
44,1.296253661541637697256565104202812
45,1.300792314170602186851453715935211
46,1.305230717220518937809159998885349
47,1.309573209385422053402091219723519
48,1.313823853404691946460187829454728
49,1.317986458995934467284130424824608
50,1.32206460345279293992506024342916
51,1.32606165018743052783754418723088
52,1.32998076545907513557403690085702
53,1.33382493349756893461108800629281
54,1.33759697020330346991462720899273
55,1.34129953558144581131709910379910
56,1.34493514504828664363531839706737
57,1.34850617973034222432266721081541
58,1.35201489586204495114571772560374
59,1.35546343337510333508763978931890
60,1.35885382376158766597001601201073
61,1.36218799728323343077135565849125
62,1.36546778959115353950067024724118
63,1.36869494781290852445765809712663
64,1.37187113615757139878416158434862
65,1.37499794108388902023502115622409
66,1.37807687607179446703810721271135
67,1.38110938603326264138496024608554
68,1.38409685139474515528235981051853
69,1.38704059188010788276662533314410
70,1.38994187002006629421557733408560
71,1.39280189441151498476236071628606
72,1.39562182274784956643240242165804
73,1.39840276463932608722212595975493
74,1.40114578424068429178327496150223
75,1.40385190270162993727434183591481
76,1.40652210045432182118362188730687
77,1.40915731935070677951154725759385
78,1.41175846466138011551887353974874
79,1.41432640694660209925543379543329
80,1.41686198380916305243925579192756
81,1.41936600153794019178074363932573
82,1.42183923665022795329201557804806
83,1.42428243734023478633337048842791
84,1.42669632484051511443253485272691
85,1.42908159470254588373974045157109
86,1.43143891800214125459222769566189
87,1.43376894247494152086383499525276
88,1.43607229358678896403895138063088
89,1.43834957554341984679028917998454
90,1.44060137224355853411129387839228
91,1.44282824817917827800437780798488
92,1.44503074928640490418731182932208
93,1.44720940375027738422631001571800
94,1.44936472276633634776662624015147
95,1.45149720126179043550384998456736
96,1.45360731857880857142339419412160
97,1.45569553912230189072790424507685
98,1.45776231297438618557742692111579
99,1.45980807647756225858107675826695
100,1.46183325278850523356222330491490
101,1.46383825240422456896746724955038
102,1.46582347366223094456888641590338
103,1.46778930321623827849774838887772
104,1.46973611648882186693966826601572
105,1.47166427810236056506388173519663
106,1.47357414228950016351879781521290
107,1.47546605328429703287092275070103
108,1.47734034569512186881157791247752
109,1.47919734486033477742357280197742
110,1.48103736718768051967597691638187
111,1.48286072047828687311796126862118
112,1.48466770423609963511200939424994
113,1.48645860996353225615274224934161
114,1.48823372144405933406394898411929
115,1.48999331501244275136537995390843
116,1.49173765981323090645422986414075
117,1.49346701804813977624097770490165
118,1.49518164521288351677603863662324
119,1.49688179032398859468867931463014
120,1.49856769613609960002685900260703
121,1.50023959935024662384430749819585
122,1.50189773081352517074986861482818
123,1.50354231571060738370472503627323
124,1.50517357374748567854579537827836
125,1.50679171932782031945331875206922
126,1.50839696172224726928440613040255
127,1.50998950523098207081026807135080
128,1.51156954934003292770756878331922
129,1.51313728887132408091772303007227
130,1.51469291412701219412308171581017
131,1.51623661102826305797373088177850
132,1.51776856124874094549995286421511
133,1.51928894234305116956208975683220
134,1.52079792787036511723661369243339
135,1.52229568751343892769396647339159
136,1.52378238719323329259667002509448
137,1.52525818917932855010649716743828
138,1.52672325219631563160007996832865
139,1.52817773152634131428944948854504
140,1.52962177910797078697944613590110
141,1.53105554363152597870504722449051
142,1.53247917063105002672934859379148
143,1.53389280257303961021490500886047
144,1.53529657894207969624764514654890
145,1.53669063632351105713645197853896
146,1.53807510848325304916377410889819
147,1.53945012644489593999915818447748
148,1.54081581856417811395758579378740
149,1.54217231060094995621435604439947
150,1.54351972578872805701155485913107
151,1.54485818490193565027535507565016
152,1.54618780632091958597651870965495
153,1.54750870609483278609805894443304
154,1.54882099800246608362246162318588
155,1.55012479361110768070617767238929
156,1.55142020233350809258245490844805
157,1.55270733148302162397626314703296
158,1.55398628632699619631831208371836
159,1.5552571701384751987782863847149
160,1.5565200842462777008492097759940
161,1.5577751280835155227962904342395
162,1.5590223992346066252714365246730
163,1.5602619934808396715938993564785
164,1.5614940048445443995000739329863
165,1.5627185256319164027908053801951
166,1.5639356464745468386799555609960
167,1.5651454563697042933841357158906
168,1.5663480427194114950923221769249
169,1.5675434913683619366343480963933
170,1.5687318866407161511992810728549
171,1.5699133113758178358023725826256
172,1.5710878469628676894035788378124
173,1.5722555733745903682568081594721
174,1.5734165691999304022593123821196
175,1.5745709116758110574928168431147
176,1.5757186767179858515747753607106
177,1.5768599389510159826282849927939
178,1.5779947717374028265419018195194
179,1.5791232472059019477487440518938
180,1.5802454362790495702108066995868
181,1.5813614086999241574882945735851
182,1.5824712330581707975799362173679
183,1.5835749768153114421143801047443
184,1.5846727063293652417404851871294
185,1.5857644868788007861611651452383
186,1.5868503826858412177522807666837
187,1.5879304569391460195993408615562
188,1.5890047718158849146045537913073
189,1.5900733885032276070979155572732
190,1.5911363672192650183809377884986
191,1.5921937672333812391118360659920
192,1.5932456468860925811002394675805
193,1.5942920636083720327295810745642
194,1.5953330739404724591699658781561
195,1.5963687335502664801259127961194
196,1.5973990972511167174128573842496
197,1.5984242190192907880855544851032
198,1.5994441520109352055078335961725
199,1.6004589485786210226368989028585
200,1.6014686602874751581485729897148
201,1.6024733379309083822572623983546
202,1.6034730315459533388295118343201
203,1.6044677904282232589635619780380
204,1.6054576631465029814046534408085
205,1.6064426975569822456193165672526
206,1.6074229408171442767527351401935
207,1.6083984393993155336284233761917
208,1.6093692391038908417406733673904
209,1.6103353850722396546260378794571
210,1.6112969217993049397787429031266
211,1.6122538931459020486476958187461
212,1.6132063423507277984279506104545
213,1.6141543120420841441392516799389
214,1.6150978442493314172888989002610
215,1.6160369804140703379738556181403
216,1.6169717614010667555136588970949
217,1.6179022275089230773027657325609
218,1.6188284184805053589940385521304
219,1.6197503735131293296248017276427
220,1.6206681312685178605000787309554
221,1.6215817298825277808269196341864
222,1.6224912069746632381831472739120
223,1.6233965996573691653835307550859
224,1.6242979445451199137898939452412
225,1.6251952777633056103723380998835
226,1.6260886349569197772414858189556
227,1.6269780512990568572937407294021
228,1.6278635614992214569844269512557
229,1.6287451998114564592016611475084
230,1.6296230000422946933247055581467
231,1.6304969955585359525986195432492
232,1.6313672192948597686203567061117
233,1.6322337037612689293393387890928
234,1.6330964810503798875531918904873
235,1.6339555828445532319335470987200
236,1.6348110404228739203068815449271
237,1.6356628846679848962948633379176
238,1.6365111460727758213215416832315
239,1.6373558547469323585881579597012
240,1.6381970404233481634745314906193
241,1.6390347324644038627794746306167
242,1.6398689598681158798374751264077
243,1.6406997512741591373988490714840
244,1.6415271349697653276432117919009
245,1.6423511388955011235994245860793
246,1.6431717906509288517293916244559
247,1.6439891175001510086707924314545
248,1.6448031463772462039387995363929
249,1.6456139038915914983685137170608
250,1.6464214163330815237196482472594
251,1.6472257096772422841975963210109
252,1.6480268095902424391627207552246
253,1.6488247414338071400375477571873
254,1.6496195302700340791050548639351
255,1.6504112008661156310955451306331
256,1.6511997776989671738335240510328
257,1.6519852849597679802256109679824
258,1.6527677465584111272207953056353
259,1.6535471861278692262031589708861
260,1.6543236270284763621683773559274
261,1.6550970923521265564248514141414
262,1.6558676049263934792769533163175
263,1.6566351873185702643396731599972
264,1.6573998618396348764493941125857
265,1.6581616505481395595515254250680
266,1.6589205752540265334918650488377
267,1.6596766575223731541865050748710
268,1.6604299186770665721553709117099
269,1.6611803798044121606536669748433
270,1.6619280617566714389056207742483
271,1.6626729851555387758108843720609
272,1.6634151703955508551497225749575
273,1.6641546376474363469174353744047
274,1.6648914068614029953736557809346
275,1.6656254977703660010096271816119
276,1.6663569298931159764685935782594
277,1.6670857225374339621713913000479
278,1.6678118948031452580929161603058
279,1.6685354655851235767205905206485
280,1.6692564535762376126878825539901
281,1.6699748772702479205990877827649
282,1.6706907549646516000738602559154
283,1.6714041047634780032844410645898
284,1.6721149445800326244240666732878
285,1.6728232921395959813369861747855
286,1.6735291649820735171018743478503
287,1.6742325804646015839862403288716
288,1.6749335557641059147465476933232
289,1.6756321078798172326257504009397
290,1.6763282536357447359432741630745
291,1.6770220096831053016689578802017
292,1.6777133925027112964319860225032
293,1.6784024184073209043723400716786
294,1.6790891035439460124780264760223
295,1.6797734638961197443693203725238
296,1.6804555152861312320238304134005
297,1.6811352733772175611835421559695
298,1.6818127536757222113262974006043
299,1.6824879715332167972995274163418
300,1.6831609421485878675619701617433
301,1.6838316805700891749412005135372
302,1.6845002016973615174097977510761
303,1.6851665202834173267181293069603
304,1.6858306509365935872366416333106
305,1.6864926081224745184901747820829
306,1.6871524061657832896908922049638
307,1.6878100592522399534725070543406
308,1.6884655814303930826369672855221
309,1.6891189866134212047145145838443
310,1.6897702885809043751628693120024
311,1.6904195009805694899469648697073
312,1.6910666373300068566247676633524
313,1.6917117110183594228535126870459
314,1.6923547353079864729082806896974
315,1.6929957233361011183739317887497
316,1.6936346881163829653225248565168
317,1.6942716425405635034597922752312
318,1.6949065993799895755432910071871
319,1.6955395712871620758906086943211
320,1.6961705707972498867007553434187
321,1.6967996103295829787927462630782
322,1.6974267021891207990862372688031
323,1.6980518585678994669675565611165
324,1.6986750915464567650372230603888
325,1.6992964130952366947898270506313
326,1.6999158350759718432929022690517
327,1.7005333692430463906943020333596
328,1.7011490272448369571078899150465
329,1.7017628206250362733434096535129
330,1.7023747608239561170517091300055
331,1.7029848591798109630453582222716
332,1.7035931269299834194989227579887
333,1.7041995752122718393732596435068
334,1.7048042150661183021676090731084
335,1.7054070574338212923709870987615
336,1.7060081131617291444212234813722
337,1.7066073930014171385444865226471
338,1.7072049076108493188031947540222
339,1.7078006675555211107270309384067
340,1.7083946833095888431096629338242
341,1.7089869652569819012098449229702
342,1.7095775236925000225714347703918
343,1.7101663688228953877559334169739
344,1.7107535107679395146405551812421
345,1.7113389595614767910270845212079
346,1.7119227251524621362472669801583
347,1.7125048174059863735026052112489
348,1.7130852461042861415628251795826
349,1.7136640209477419081689242382008
350,1.7142411515558616454643884311292
351,1.7148166474682522735977111588969
352,1.7153905181455785739994602710841
353,1.7159627729705088764575557170985
354,1.7165334212486489548490304272126
355,1.7171024722094645178413714160284
356,1.7176699350071905260723648994491
357,1.7182358187217305972753256505810
358,1.7188001323595457665033778788982
359,1.7193628848545283705052647987879
360,1.7199240850688700188841943301731
361,1.7204837417939154224123536874276
362,1.7210418637510085864705587953347
363,1.7215984595923259924704819337447
364,1.7221535379017018193899943030853
365,1.7227071071954434709047170870621
366,1.7232591759231363158478157108229
367,1.7238097524684405651111078984035
368,1.7243588451498771058707214633685
369,1.7249064622216069589388592409049
370,1.7254526118742001068058059187553
371,1.7259973022353965812657081627963
372,1.7265405413708588039189904552787
373,1.7270823372849151843604095688392
374,1.7276226979212993239540448652763
375,1.7281616311638755575730840010394
376,1.7286991448373623317695917722098
377,1.7292352467080452523323834390636
378,1.7297699444844830139351859533528
379,1.7303032458182080985987300996766
380,1.7308351583044190483447593672850
381,1.7313656894826672378273245865701
382,1.7318948468375353172972250158832
383,1.7324226377993120546508772397401
384,1.7329490697446585963228984902150
385,1.7334741499972698264102429621895
386,1.7339978858285315429450135965966
387,1.7345202844581692631751922770909
388,1.7350413530548926594854962807392
389,1.7355610987370363679190123117254
390,1.7360795285731944282221367740281
391,1.7365966495828487447902294758334
392,1.7371124687369952521134346419454
393,1.7376269929587653362781065920594
394,1.7381402291240411747144802896671
395,1.7386521840620679352717039023816
396,1.7391628645560625729818823489579
397,1.7396722773438189453105762334477
398,1.7401804291183093484976407978136
399,1.7406873265282811389626448319773
400,1.7411929761788528418199858046598
401,1.7416973846321059015591048670673
402,1.7422005584076729305031728446302
403,1.7427025039833253906338934455212
404,1.7432032277955587213446566057708
405,1.7437027362401725029193688690804
406,1.7442010356728518942109584878922
407,1.7446981324097475959810988693757
408,1.7451940327280519834281972630305
409,1.7456887428665744151320241347118
410,1.7461822690263183851687431564312
411,1.7466746173710549370657780255240
412,1.7471657940278960875579067356212
413,1.7476558050878695116048120814836
414,1.7481446566064910922679469201044
415,1.7486323546043398068901145681904
416,1.7491189050676315748068687934280
417,1.7496043139487951191430509701309
418,1.7500885871670472189497708483105
419,1.7505717306089718525441708226619
420,1.7510537501290984461764464791250
421,1.7515346515504834227314032858402
422,1.7520144406652945854189718975991
423,1.7524931232353964373808086250339
424,1.7529707049929403276660466841635
425,1.7534471916409560923017318581188
426,1.7539225888539490998816935287439
427,1.7543969022785005028585395559279
428,1.7548701375338710394381025534977
429,1.7553423002126126451316407424229
430,1.7558133958811810989950950542633
431,1.7562834300805575882898620497106
432,1.7567524083268767391942181511764
433,1.7572203361120568686408347153531
434,1.7576872189044439924255781172607
435,1.7581530621494578716885334233873
436,1.7586178712702484794762115183447
437,1.7590816516683615530763663833559
438,1.7595444087244127433967562133854
439,1.7600061477987715981947283656010
440,1.7604668742322570336367646293640
441,1.7609265933468420666908141726895
442,1.7613853104463720156767791036133
443,1.7618430308172964931886223603986
444,1.7622997597294105220289738570859
445,1.7627555024366148528517479197169
446,1.7632102641776872948510185438873
447,1.7636640501770730569002961487068
448,1.7641168656456881893022798291197
449,1.7645687157817448849626578121693
450,1.7650196057715917598771634374447
451,1.7654695407905776356359253212505
452,1.7659185260039327402844270472655
453,1.7663665665676742043293837291762
454,1.7668136676295334370427906504178
455,1.7672598343299102695266003580708
456,1.7677050718028504946303540012572
457,1.7681493851770529076355062522660
458,1.7685927795769037316730121681903
459,1.7690352601235425149092863225132
460,1.7694768319359608055472182163253
461,1.7699175001321332146266394939606
462,1.7703572698301859428434286037033
463,1.7707961461496033481163699115140
464,1.7712341342124728049734895695591
465,1.7716712391447740397363827699662
466,1.7721074660777124211063005349843
467,1.7725428201490979784598636360905
468,1.7729773065047778080317401036909
469,1.7734109303001171517010146899631
470,1.7738436967015396559163763946652
471,1.7742756108881242483377321565735
472,1.7747066780532663011168520810199
473,1.7751369034064020185164520389849
474,1.7755662921748073707105151589527
475,1.7759948496054645625813320930164
476,1.7764225809670128839213668143846
477,1.7768494915517788931294287577420
478,1.7772755866778955376799315080797
479,1.7777008716915143596504713303943
480,1.7781253519691167969551931394336
481,1.7785490329199291320444087504974
482,1.7789719199884510727972676198397
483,1.7793940186571002092288667599429
484,1.7798153344489825129810102466064
485,1.7802358729307982260998960130889
486,1.7806556397158861583314794447603
487,1.7810746404674222875348131797805
488,1.7814928809017769673308348200434
489,1.7819103667920443950365976024979
490,1.7823271039717534057870031370857
491,1.7827430983387737741663302802371
492,1.7831583558594295757022712667199
493,1.7835728825728335442928810012810
494,1.7839866845954585654398333539720
495,1.7843997681259607245983360764657
496,1.7848121394502746692498996460797
497,1.7852238049469958884615375037893
498,1.7856347710930743064006091777448
499,1.7860450444698388136673664847459
500,1.786454631769378825729086681912
501,1.786863539801304579560506419399
502,1.787271775499921787279890442772
503,1.787679345931842690437839140393
504,1.788086258304074582912149531726
505,1.788492519972614785502264517530
506,1.788898138451597141920743626133
507,1.789303121423030753400802807991
508,1.789707476747177353934379929020
509,1.790111212473616617130567134636
510,1.790514336853061259377103924100
511,1.790916858349976240234909739134
512,1.791318785656072857191343225231
513,1.791720127704749712390737848391
514,1.792120893686561771983182867528
515,1.792521093065806426006575315806
516,1.792920735598322192442201535345
517,1.793319831350608500488324743427
518,1.793718390720386787794996338592
519,1.794116424458730548067120027821
520,1.794513943693911938673819747880
521,1.794910959957122091498868578788
522,1.795307485210247278237016108776
523,1.795703531875894973150042860167
