Eigenstate,Potential Energy
1,0.500000000013943237179553026548459223
2,0.64623093774212879143388055815842262
3,0.73633760997232219703535306404496964
4,0.79966527837109067608745373665562112
5,0.8480465762502662188872390538856642
6,0.8870659983628576130994734350129338
7,0.9197208261462587450754085554856222
8,0.9477838459770107759634385355251740
9,0.9723835568611614131191180397018254
10,0.9942802129471384720597653904978715
11,1.0140093843758840409984127864576198
12,1.0319621664519581105943438286534504
13,1.0484326892411151280579026325407628
14,1.0636476504264567522774977479855877
15,1.0777854311226114458433650733425167
16,1.090988900746176282462577589611336
17,1.103374250477219262656230027784578
18,1.115037244265477509728543116239955
19,1.126057741934334082084919479320202
20,1.136503036814753893275154306957520
21,1.146430361826980543215968128690803
22,1.155888800639276215483909530707081
23,1.164920765604446168824840159787051
24,1.173563155160260780751822092746053
25,1.181848270625381856487480275946950
26,1.189804550006950319864501258533189
27,1.197457160963162005401489154667027
28,1.204828484162307464205530198096378
29,1.211938510484723876604221859970893
30,1.218805169864619596337881685104661
31,1.225444605422793351933878980797475
32,1.231871403463370546789661718424750
33,1.238098787598031295827255268891324
34,1.244138783510658570780296436326051
35,1.250002359536139760751733131767212
36,1.255699547193576076350904499015550
37,1.261239545010069677378540350501521
38,1.266630808340839661028760715729180
39,1.271881127393569398172933522377092
40,1.276997695269066921836505619167423
41,1.281987167513569798332869262330574
42,1.286855714423033310072925249105977
43,1.291609067133254434201739903266070
44,1.296252558361590085749973293720054
45,1.300791158528458525024195832187464
46,1.305229507873676546394647556356643
47,1.309571945089208453330878565781387
48,1.313822532912316460307125210476236
49,1.317985081058439618319190345396431
50,1.32206316681900564711508540836226
51,1.32606015360391309478074307049685
52,1.32997920767007603103244268756915
53,1.33382331324497336202975941137292
54,1.33759528622658372307363315544144
55,1.34129778661761141304818282088136
56,1.34493332983183426434472674056308
57,1.34850429699320537689172638708351
58,1.35201294433354345862705136837553
59,1.35546141178189256747698552762278
60,1.35885173082760754220679447972348
61,1.36218583172965718200543041921797
62,1.36546555013633622955547168859900
63,1.36869263317233532332058458578628
64,1.37186874504380560486220328046285
65,1.37499547220651982702556396565289
66,1.37807432813738446978232825963196
67,1.38110675774529507919215397105301
68,1.38409414145357088413789117340720
69,1.38703779898289207476298101181171
70,1.38993899286073485827635208250791
71,1.39279893168070070405938022598059
72,1.39561877313283794763028828039688
73,1.39839962682400091661814769772168
74,1.40114255690547289334633177755855
75,1.40384858452344812752250094713244
76,1.40651869010651855577726647677160
77,1.40915381550300848637576551611318
78,1.41175486597983470924639603181676
79,1.41432271209352267147886461305192
80,1.41685819144307123279943714770043
81,1.41936211031350917405474129782214
82,1.42183524521822518118209396656818
83,1.42427834434746429335474804734921
84,1.42669212892975951227439551448675
85,1.42907729451250799340961639216586
86,1.43143451216738537458975926415043
87,1.43376442962583432656384339713376
88,1.43606767234944003239846057903239
89,1.43834484453962180042718681289315
90,1.44059653009072679873474400175602
91,1.44282329349029044710849841253743
92,1.44502568066993970485077448221355
93,1.44720421981015323778985147174974
94,1.44935942210184951908941801871564
95,1.45149178246755276442726022094907
96,1.45360178024468477999756357399353
97,1.45568987983334645968157677298940
98,1.45775653131077979343673823463774
99,1.45980217101454777676518431886178
100,1.46182722209632327070656222171831
101,1.46383209504804855764553868918850
102,1.46581718820210176350336602520534
103,1.46778288820699840326996965061988
104,1.46972957048004904212259758287765
105,1.47165759963830099062022118422312
106,1.47356732990900118821912186431838
107,1.47545910552073934739971350274695
108,1.47733326107635119114026107170226
109,1.47919012190859302293898004936640
110,1.48103000441953644846097868132454
111,1.48285321640456620668793623919754
112,1.48466005736181463481498105301935
113,1.48645081878781075534513830698091
114,1.48822578446007321607537168326623
115,1.48998523070733586516568101338696
116,1.49172942666804641183450359164433
117,1.49345863453774691021688845907779
118,1.49517310980590377281634560106286
119,1.49687310148272130626499808015444
120,1.49855885231644691987163851736089
121,1.50023059900163789019310847352106
122,1.50188857237884065173160570096010
123,1.50353299762610139092854224334564
124,1.50516409444270904081689141103749
125,1.50678207722554220743089096509416
126,1.50838715523837636177437259069083
127,1.50997953277448705326261335056456
128,1.51155940931286231336271092136240
129,1.51312697966832534491937371435691
130,1.51468243413585021078575021599094
131,1.51622595862933783126085733895697
132,1.51775773481510462263432171968897
133,1.51927794024032432755530224560199
134,1.52078674845665231198345164409971
135,1.52228432913924349513739682067908
136,1.52377084820137139132585832980794
137,1.52524646790484243460284242091413
138,1.52671134696638614519784902580528
139,1.52816564066019959076635501972670
140,1.52960950091680914953758135512274
141,1.53104307641840802494663026603315
142,1.53246651269081988807091289177126
143,1.53387995219223037402160585932194
144,1.53528353439882097880376485921475
145,1.53667739588743571539977533119660
146,1.53806167041540301907974738521525
147,1.53943648899762718897654672196224
148,1.54080197998106469492981908151539
149,1.54215826911668715052899436656048
150,1.54350547962903459320820329073410
151,1.54484373228345498562209928211511
152,1.54617314545112023744707517766916
153,1.54749383517190769727559049653494
154,1.54880591521523101381943140067827
155,1.55010949713889860238780112229271
156,1.55140469034607758297621600127792
157,1.55269160214043423654207808055734
158,1.55397033777952279754029955796181
159,1.5552410005264862555244047206456
160,1.5565036917001355033227886878696
161,1.5577585107234653278810529966959
162,1.5590055551706667048417287689761
163,1.5602449208126902501307359376627
164,1.5614767016614154651154282922608
165,1.5627009900124743755218229531606
166,1.5639178764867800796697046012193
167,1.5651274500708074383149749517128
168,1.5663297981556685949826054765813
169,1.5675250065750283888507931527755
170,1.5687131596418994032718112956676
171,1.5698943401843568443602850344473
172,1.5710686295802111162766358690741
173,1.5722361077906734955063324725025
174,1.5733968533930507476187221396381
175,1.5745509436125026714083024742258
176,1.5756984543528922767409957272176
177,1.5768394602267618566126933279994
178,1.5779740345844641077859966081021
179,1.5791022495424747449206581252775
180,1.5802241760109175545663402785595
181,1.5813398837203245375735018457099
182,1.5824494412476588352773749799984
183,1.5835529160416234886985468328475
184,1.5846503744472802722657102398574
185,1.5857418817300004101532693809628
186,1.5868275020987681438225942785482
187,1.5879072987288609512334327543078
188,1.5889813337839218540091159667817
189,1.5900496684374475436121457029520
190,1.5911123628937079775737451011195
191,1.5921694764081166682946663103849
192,1.5932210673070680465850152771185
193,1.5942671930072602037552334226120
194,1.5953079100345163530044111101776
195,1.5963432740421229424276799025115
196,1.5973733398286981115049766766586
197,1.5983981613556048663541287825728
198,1.5994177917639231356890333713485
199,1.6004322833909935412980374106502
200,1.6014416877865468232031794611811
201,1.6024460557284298958787224327639
202,1.6034454372379419116398577943109
203,1.6044398815947909858833125739405
204,1.6054294373516831990409287887558
205,1.6064141523485538405578912714456
206,1.6073940737264539135920914282441
207,1.6083692479410977710597200937363
208,1.6093397207760861044313438031249
209,1.6103055373558100281056190993009
210,1.6112667421580477549592529748032
211,1.6122233790262612220292479291110
212,1.6131754911816028934490763717551
213,1.6141231212346371185262583940831
214,1.6150663111967910206445028318922
215,1.6160051024915341232146222049724
216,1.6169395359653006671242658656543
217,1.6178696518981585787214709062180
218,1.6187954900142340607744487546475
219,1.6197170894918950793359907389902
220,1.6206344889737062546326596962172
221,1.6215477265761530582607920450133
222,1.6224568398991525140469281908075
223,1.6233618660353439633958603481599
224,1.6242628415791749544164088644977
225,1.6251598026357848113592074992427
226,1.6260527848296894222990821296351
227,1.6269418233132758879000911191504
228,1.6278269527751088414540803170851
229,1.6287082074480555923276116967836
230,1.6295856211172347790450874441309
231,1.6304592271277903212619980237169
232,1.6313290583925010795323436048582
233,1.6321951473992212083578523814263
234,1.6330575262181673485679140026176
235,1.6339162265090458301130975195809
236,1.6347712795280295840232405617872
237,1.6356227161345883836394189688068
238,1.6364705667981741461130093002469
239,1.6373148616047667297334328690566
240,1.6381556302632823804826605253360
241,1.6389929021118491091457306940523
242,1.6398267061239518549077310768042
243,1.6406570709144514661899628602919
244,1.6414840247454791869409654127517
245,1.6423075955322110214721951410176
246,1.6431278108485244963846871628550
247,1.6439446979325392013508555409444
248,1.6447582836920486892838418931558
249,1.6455685947098387043882226710518
250,1.6463756572489021221907247152730
251,1.6471794972575485009559094149768
252,1.6479801403744110423797491487218
253,1.6487776119333560331570682311152
254,1.6495719369682944236727702546167
255,1.6503631402178994232391773439193
256,1.6511512461302301966389367852905
257,1.6519362788672680527107291340673
258,1.6527182623093615690292321219903
259,1.6534972200595874555225127536366
260,1.6542731754480275427239433215891
261,1.6550461515359622077084636112151
262,1.6558161711199849624378138320243
263,1.6565832567360370543941420199080
264,1.6573474306633675296524499646578
265,1.6581087149284172829167187836849
266,1.6588671313086292615494025482255
267,1.6596227013361880361234981808367
268,1.6603754463016887704933518241107
269,1.6611253872577398605804653756512
270,1.6618725450224949652955179501421
271,1.6626169401831237128300048331824
272,1.6633585930992150611583117610266
273,1.6640975239061207551413660000593
274,1.6648337525182360885258783800498
275,1.6655672986322218456950738720908
276,1.6662981817301657007994510512772
277,1.6670264210826905575577654393906
278,1.6677520357520015836518556325241
279,1.6684750445948834421599562878627
280,1.6691954662656398128740707687112
281,1.6699133192189830923044506550986
282,1.6706286217128717686192358943524
283,1.6713413918112986839454566723714
284,1.6720516473870273405463667838702
285,1.6727594061242830581152710188797
286,1.6734646855213950069110876590965
287,1.6741675028933941760062869051192
288,1.6748678753745636784029198583006
289,1.6755658199209460410606578741762
290,1.6762613533128082123435980011566
291,1.6769544921570621278058679258330
292,1.6776452528896437192020621178878
293,1.6783336517778542724766786163661
294,1.6790197049226591716265186790303
295,1.6797034282609461155607035877208
296,1.6803848375677503934975138959027
297,1.6810639484584371506022953483344
298,1.6817407763908499605972742976747
299,1.6824153366674225081778530670456
300,1.6830876444372551318177921680712
301,1.6837577146981566383779710331945
302,1.6844255622986534824280239480443
303,1.6850912019399634833863765028212
304,1.6857546481779376579846146841183
305,1.6864159154249715965591345727577
306,1.6870750179518856463664816072053
307,1.6877319698897710838721659157608
308,1.6883867852318097544379479029445
309,1.6890394778350632686694471526801
310,1.6896900614222320905669316675281
311,1.6903385495833881123785511657839
312,1.6909849557776782292845832754570
313,1.6916292933350003066583165973510
314,1.6922715754576533441732628880365
315,1.6929118152219611563961355618506
316,1.6935500255798709455040539452245
317,1.6941862193605243047272590579508
318,1.6948204092718060037586533035750
319,1.6954526079018676976885399877374
320,1.6960828277206265607191892785194
321,1.6967110810812427635898566718939
322,1.6973373802215719091394767550735
323,1.6979617372655959400426499773512
324,1.6985841642248314958546862052396
325,1.6992046729997174813430323803495
326,1.6998232753809800833278566776986
327,1.7004399830509780567835711292733
328,1.7010548075850254693920658444874
329,1.7016677604526968794024388857541
330,1.7022788530191113784592845251097
331,1.7028880965461969379719769367454
332,1.7034955021939361202450425213806
333,1.7041010810215935329031030084983
334,1.7047048439889232106120287396998
335,1.7053068019573602390070749576286
336,1.7059069656911926788574166166456
337,1.7065053458587166626912371758486
338,1.7071019530333757227111687397167
339,1.7076967976948804144850571224926
340,1.7082898902303143277301219646723
341,1.7088812409352221977459946595782
342,1.7094708600146826146237598791070
343,1.7100587575843649679980211674666
344,1.7106449436715706210267122855556
345,1.7112294282162601329104799465936
346,1.7118122210720640047243743484204
347,1.7123933320072805138978157702307
348,1.7129727707058574490447171401950
349,1.7135505467683612900458744125263
350,1.7141266697129313757017823701996
351,1.7147011489762211465376425470455
352,1.7152739939143261451032314162356
353,1.7158452138036980581240585714746
354,1.7164148178420462149582975419889
355,1.7169828151492269076214602767787
356,1.7175492147681187421461997353725
357,1.7181140256654872603002454257473
358,1.7186772567328380756486848331232
359,1.7192389167872542690846735356546
360,1.7197990145722269817328359900788
361,1.7203575587584709500802778595357
362,1.7209145579447314649210539712494
363,1.7214700206585773497134405293728
364,1.7220239553571849823302690797136
365,1.7225763704281115965562667954739
366,1.7231272741900567409889930039705
367,1.7236766748936147873410376947668
368,1.7242245807220152768600553214249
369,1.7247709997918557373998483337969
370,1.7253159401538226843059175042921
371,1.7258594097934036584129409261957
372,1.7264014166315892576218573150087
373,1.7269419685255651287609080753642
374,1.7274810732693982281989063323888
375,1.7280187385947080427694547939515
376,1.7285549721713342272106856750328
377,1.7290897816079924473200458175848
378,1.7296231744529215962248427518837
379,1.7301551581945242235590318151580
380,1.7306857402619969343000910744558
381,1.7312149280259536326908705657000
382,1.7317427287990387294050246072726
383,1.7322691498365349866064967124082
384,1.7327941983369609645926069177609
385,1.7333178814426616912636200353848
386,1.7338402062403932130596999277195
387,1.7343611797618967766888685569871
388,1.7348808089844665784312767027011
389,1.7353991008315117556914016890936
390,1.7359160621731098098896055064093
391,1.7364316998265517776184829904946
392,1.7369460205568827584248649503377
393,1.7374590310774352726878988920428
394,1.7379707380503540306729830440078
395,1.7384811480871149696172839807277
396,1.7389902677490382096966317989691
397,1.7394981035477945587643037414263
398,1.7400046619459055739776813505485
399,1.7405099493572357460860143666121
400,1.7410139721474811063182973607353
401,1.7415167366346503047722891652976
402,1.7420182490895389055023480175133
403,1.7425185157361997190270462436271
404,1.7430175427524070653270744695017
405,1.7435153362701124327595338649620
406,1.7440119023758976419038284974006
407,1.7445072471114226310398317405749
408,1.7450013764738653664327781339788
409,1.7454942964163567384824336686231
410,1.7459860128484129581949630242667
411,1.7464765316363597139759909452660
412,1.7469658586037516713139781351747
413,1.7474539995317883943938576849102
414,1.7479409601597231134662570153198
415,1.7484267461852686219149333082533
416,1.7489113632649967326353163997331
417,1.7493948170147341421909403551790
418,1.7498771130099518659637194352252
419,1.7503582567861525227897335167333
420,1.7508382538392504509820935896507
421,1.7513171096259486079043823507804
422,1.7517948295641115346764585994018
423,1.7522714190331322221325465830783
424,1.7527468833742964917352498322156
425,1.7532212278911412707844365805515
426,1.7536944578498103687400978112382
427,1.7541665784794052392670993263194
428,1.7546375949723307416676670382108
429,1.7551075124846398140671580768140
430,1.7555763361363699204358209568202
431,1.7560440710118787750780015111500
432,1.7565107221601764940793886124556
433,1.7569762945952495115854710621957
434,1.7574407932963873588241675154516
435,1.7579042232085001295219512978967
436,1.7583665892424345326785963685911
437,1.7588278962752866940447544738140
438,1.7592881491507106883401385215464
439,1.7597473526792234834903284703925
440,1.7602055116385073680686361814357
441,1.7606626307737070217682453711309
442,1.7611187147977247925229154157311
443,1.7615737683915138279434960894301
444,1.7620277962043636804117777443226
445,1.7624808028541877164614581014686
446,1.7629327929278033547653063288910
447,1.7633837709812123018665302382325
448,1.7638337415398740038251491741108
449,1.7642827090989801542523858670498
450,1.7647306781237224111424525301307
451,1.7651776530495608255635306956071
452,1.7656236382824858235234119541840
453,1.7660686381992794840479170374529
454,1.7665126571477725023876637927022
455,1.7669556994471004621906995214273
456,1.7673977693879547136054956830765
457,1.7678388712328325529861331597381
458,1.7682790092162831000603525388295
459,1.7687181875451513864489968128694
460,1.7691564103988202978434378774107
461,1.7695936819294482195285305791178
462,1.7700300062622055982640961766184
463,1.7704653874955090242577998963942
464,1.7708998297012509940970197363139
465,1.7713333369250293233363560576975
466,1.7717659131863733393983333902095
467,1.7721975624789661352638643463581
468,1.7726282887708678995530820050091
469,1.7730580960047327996528154030194
470,1.7734869880980269423905103339973
471,1.7739149689432416793194822864913
472,1.7743420424081065541857316652754
473,1.7747682123357972434358795365753
474,1.7751934825451459937168313748518
475,1.7756178568308434790787257484363
476,1.7760413389636445916420906250359
477,1.7764639326905684986807190437043
478,1.7768856417350976420633820111344
479,1.7773064697973745693919998373015
480,1.7777264205543969913702104266166
481,1.7781454976602096162294565160595
482,1.7785637047460963299507235996757
483,1.7789810454207681022295467577307
484,1.7793975232705494378883787790825
485,1.7798131418595648505613209326341
486,1.7802279047299199433917194027649
487,1.7806418154018839454716648878182
488,1.7810548773740683004554702537659
489,1.7814670941236045353915444826797
490,1.7818784691063192727606699944747
491,1.7822890057569085198633824571802
492,1.7826987074891098236017164706296
493,1.7831075776958722655192703032942
494,1.7835156197495253909929182584757
495,1.7839228370019452649225156106486
496,1.7843292327847208981879880766546
497,1.7847348104093167302402783873019
498,1.7851395731672351129226084205479
499,1.7855435243301762926839576774225
500,1.785946667150198021494053477226
501,1.786349004859870542306199196603
502,1.786750540672434404052678539746
503,1.787151277781952574098236329160
504,1.787551219363464691786366186883
505,1.787950368573136310335023292282
506,1.788348728548408856957977940743
507,1.788746302408148159023150672986
508,1.789143093252791175987029685350
509,1.789539104164489167771416886735
510,1.789934338207253352592208618798
511,1.790328798427096285086086979467
512,1.790722487852172854698443087732
513,1.791115409492919519836771737422
514,1.791507566342192454017981845779
515,1.791898961375404978074144615381
516,1.792289597550662488571445086505
517,1.792679477808895956998808194943
518,1.793068605073995784929885928869
519,1.793456982252942796920824421769
520,1.793844612235939227965020126482
521,1.794231497896536500551834985351
522,1.794617642091764067348904676286
523,1.795003047662255756483432755840
