Eigenstate,Potential Energy
1,0.500000000012287572459283559937292348
2,0.64623093773132149509869067006881773
3,0.73633760994057672789699875993584508
4,0.79966527830496875065546648171924939
5,0.8480465761357300912342797355131295
6,0.8870659981856242268038781512937236
7,0.9197208258919303063558586547555513
8,0.9477838456311292863239056863486085
9,0.9723835564092340989584894610214062
10,0.9942802123746507575400347830484296
11,1.0140093836683066568911764926631307
12,1.0319621655947512149520569011125137
13,1.0484326882197308001515708077459191
14,1.0636476492263405503863573354106827
15,1.0777854297292034003234714630234987
16,1.090988899144911534124195868989953
17,1.103374248653528470457346051690773
18,1.115037242204787103803721954277104
19,1.126057739622066410269781523598694
20,1.136503034236327292535961065567560
21,1.146430358967809357003967515723350
22,1.155888797484770771408534875692281
23,1.164920762140012726708449483658890
24,1.173563151371301458232917783968855
25,1.181848266497294537363755645106332
26,1.189804545525128548994170094240318
27,1.197457156112994873011106899508794
28,1.204828478929179481756182601623424
29,1.211938504854014845861077121460949
30,1.218805163821704472914284959136091
31,1.225444598953042104302134076947326
32,1.231871396552148011540015951324270
33,1.238098780230697029795950922345716
34,1.244138775672566700543820835936930
35,1.250002351212638829888241748185826
36,1.255699538370008890794426424252978
37,1.261239535671773149132033239781159
38,1.266630798473144650454692729860734
39,1.271881116981800555042086836212565
40,1.276997684298542525285045086448408
41,1.281987155969601595852840358544499
42,1.286855702290926355641021036054967
43,1.291609054398306925634487168184325
44,1.296252545009093201359706794972674
45,1.300791144543696259638755301561043
46,1.305229493241925546794197207048225
47,1.309571929795737853147261671511454
48,1.313822516942387714424447113163518
49,1.317985064397306336808649197815192
50,1.32206314945191342873225535156255
51,1.32606013551609936004941474730814
52,1.32997918884676985493562608473200
53,1.33382329367139530632545165166622
54,1.33759526588794566825036755648391
55,1.34129776549911638993315078908640
56,1.34493330791867628537532852677680
57,1.34850427427056926705973552527374
58,1.35201292078660468610310949419794
59,1.35546138739581707392187952037658
60,1.35885170558755157277484243628856
61,1.36218580562076711504432798452027
62,1.36546552314374840600608185486988
63,1.36869260528117587581939638476450
64,1.37186871623919028654851086445800
65,1.37499544247355384005481459066180
66,1.37807429746116229354656267694907
67,1.38110672611090029824798668761668
68,1.38409410884607601584205539945516
69,1.38703776538735839661508069828232
70,1.38993895826221223496813629525630
71,1.39279889606422741422953365506225
72,1.39561873648344051032347224394475
73,1.39839958912669391744676728476157
74,1.40114251814525881035328699499905
75,1.40384854468531715674297150652696
76,1.40651864917544843649739994211358
77,1.40915377346396432608596805265315
78,1.41175482281776880828677081826247
79,1.41432266779337434737420220811722
80,1.41685814598976664428103783833191
81,1.41936206369196114476622782390222
82,1.42183519741333302306626325659787
83,1.42427829534411362971841686710900
84,1.42669207871282210052809066619241
85,1.42907724306684154747889008209493
86,1.43143445947783338699481652153485
87,1.43376437567722589016410228422300
88,1.43606761712658966179859376200529
89,1.43834478802732925304112994912408
90,1.44059647227377689550409525710091
91,1.44282323435345289287167575105502
92,1.44502562019796890835924491416726
93,1.44720415798778813136769597915453
94,1.44935935891381337793244623359978
95,1.45149171789855302553784250411685
96,1.45360171427941286075131768976435
97,1.45568981245647757602197849837925
98,1.45775646250697277769371906517432
99,1.45980210076844489509370949921094
100,1.46182715039255004014117564879850
101,1.46383202187121356276680285464204
102,1.46581711353679647271210214828130
103,1.46778281203779698466517920951095
104,1.46972949279150817897889383397906
105,1.47165752041495969646058745344123
106,1.47356724913538062147877711680983
107,1.47545902318134262567683477390986
108,1.47733317715566320502928888605559
109,1.47919003639108024944220039101325
110,1.48102991728964676397405056262151
111,1.48285312764672869955501325802480
112,1.48465996696043941744903597569073
113,1.48645072672728877590908409690424
114,1.48822569072477606971954935704197
115,1.48998513528161560481724891065861
116,1.49172932953623535853424681340716
117,1.49345853568415746299894191509033
118,1.49517300921482821812629452736997
119,1.49687299913843162691180213107351
120,1.49855874820319460350879598590367
121,1.50023049310365373732446126926507
122,1.50188846468033458323715591960201
123,1.50353288811126225510561929235078
124,1.50516398309570441993201161568710
125,1.50678196403051822377759808522502
126,1.50838704017945748323234070601802
127,1.50997941583577589835327089034548
128,1.51155929047843945579661227599392
129,1.51312685892224911763052364119356
130,1.51468231146215650944807871829764
131,1.51622583401203991728198941282240
132,1.51775760823819292562178652333457
133,1.51927781168776624725029993819582
134,1.52078661791239201965725876644198
135,1.52228419658720173444547990537744
136,1.52377071362544527861474211324055
137,1.52524633128890525866474340730862
138,1.52671120829428716646807249014245
139,1.52816549991576383995842711140881
140,1.52960935808383722571105520989656
141,1.53104293148067589300249306155670
142,1.53246636563207867566948652583095
143,1.53387980299620616791781515556312
144,1.53528338304921462059461655427623
145,1.53667724236792259667887355181902
146,1.53806151470963287599363736082034
147,1.53943633108922389617765698937941
148,1.54080181985362605892075172097489
149,1.54215810675378470239287503523820
150,1.54350531501421338071979606500568
151,1.54484356540023336473434088707542
152,1.54617297628298966314767221285258
153,1.54749366370233251380829838016367
154,1.54880574142764824426459596884419
155,1.55010932101671773759673342126798
156,1.55140451187268036985391756625827
157,1.55269142129917446567283290168653
158,1.55397015455372609015061184721104
159,1.5552408148994498497777253722181
160,1.5565035036551280399404587436996
161,1.5577583202437266350838553912213
162,1.5590053622394075826064070747089
163,1.5602447254130922537558263125318
164,1.5614765037766306880907210412094
165,1.5627007896256252316956897766225
166,1.5639176735809590847085984510114
167,1.5651272446290769904492852463740
168,1.5663295901610607550330562550175
169,1.5675247960105446595295583501913
170,1.5687129464905105077524576847194
171,1.5698941244290025041106684026675
172,1.5710684112037998281487907441345
173,1.5722358867760823080773928196577
174,1.5733966297231250367768987442857
175,1.5745507172700559151778555212404
176,1.5756982253207058293401771609515
177,1.5768392284875847217385375426788
178,1.5779738001210127111198452943130
179,1.5791020123374327058482713591606
180,1.5802239360469354571063908499779
181,1.5813396409800197005082190701980
182,1.5824491957136150814791007783964
183,1.5835526676963909136459039001354
184,1.5846501232733750117430430904763
185,1.5857416277099044071270111709906
186,1.5868272452149289144881578377485
187,1.5879070389636913502261926371221
188,1.5889810711197998387730159317676
189,1.5900494028567159379194288434182
190,1.5911120943786742341892685433106
191,1.5921692049410526307782203534798
192,1.5932207928702097102250305578157
193,1.5942669155828074756272394167771
194,1.5953076296046328111475547090669
195,1.5963429905889355941325672079853
196,1.5973730533342971507060885721665
197,1.5983978718020434301200039456032
198,1.5994174991332170598033798572611
199,1.6004319876651211149248876385296
200,1.6014413889474485426291866891065
201,1.6024457537580082173256165921934
202,1.6034451321180610031400761528272
203,1.6044395733072764782117722835893
204,1.6054291258783219356958462841032
205,1.6064138376710936267835435504981
206,1.6073937558266032644363335653315
207,1.6083689268005256584590868235589
208,1.6093393963764217033164685976873
209,1.6103052096786424615196718104351
210,1.6112664111849258381820996589363
211,1.6122230447386932056999142335669
212,1.6131751535610562056791416829753
213,1.6141227802625381059966688513654
214,1.6150659668545246886783403926262
215,1.6160047547604438748182480563857
216,1.6169391848266880409892545285220
217,1.6178692973332829861796795087421
218,1.6187951320043125216985616717912
219,1.6197167280181019569777673205458
220,1.6206341240171729893911293743459
221,1.6215473581179679003725602630240
222,1.6224564679203602551907017943141
223,1.6233614905169456672032997331581
224,1.6242624625021276858813053152383
225,1.6251594199810013651369716934441
226,1.6260523985780380498884861085663
227,1.6269414334455800236991211643263
228,1.6278265592721468276817435894499
229,1.6287078102905604028034769469991
230,1.6295852202858937418182789003154
231,1.6304588226032448400813321013119
232,1.6313286501553463541492108771549
233,1.6321947354300059536534444858434
234,1.6330571104973935124962932893461
235,1.6339158070171683104515931349127
236,1.6347708562454559439215628177027
237,1.6356222890416785659588716441881
238,1.6364701358752401865471005862047
239,1.6373144268320724687011207323437
240,1.6381551916210431737854455753160
241,1.6389924595802315373797140481343
242,1.6398262596830734316217478409228
243,1.6406566205443803447807721747314
244,1.6414835704262338662765161169861
245,1.6423071372437600502338389995358
246,1.6431273485707861761192036025425
247,1.6439442316453812882230738271598
248,1.6447578133752880945206213491882
249,1.6455681203432411934044216445886
250,1.6463751788121820123877935221966
251,1.6471790147303683581836724705512
252,1.6479796537363813760518384515131
253,1.6487771211640349900104600142901
254,1.6495714420471874801617719045030
255,1.6503626411244590765541816449518
256,1.6511507428438556543401723492877
257,1.6519357713673049209672035568308
258,1.6527177505751015394529477738052
259,1.6534967040702679905880298195514
260,1.6542726551828315597632446284225
261,1.6550456269740177614710540635208
262,1.6558156422403649262058969424595
263,1.6565827235177587996426502164951
264,1.6573468930853926042436302200687
265,1.6581081729696510878189445915431
266,1.6588665849479207260697485108332
267,1.6596221505523292916436112855750
268,1.6603748910734148226980378504754
269,1.6611248275637282601683508962883
270,1.6618719808413654771611013071168
271,1.6626163714934379837062811606957
272,1.6633580198794762857091426864167
273,1.6640969461347733404926504004430
274,1.6648331701736653172245324449543
275,1.6655667116927535370847473945861
276,1.6662975901740658708018177477631
277,1.6670258248881650768481579849149
278,1.6677514348971958342179596475761
279,1.6684744390578819722321625167225
280,1.6691948560244659902160257726964
281,1.6699127042515987558522791623967
282,1.6706280019971768784578150985456
283,1.6713407673251309696100413082360
284,1.6720510181081619476377674724511
285,1.6727587720304321932167838749992
286,1.6734640465902075807951606309898
287,1.6741668591024554451189300950575
288,1.6748672267013948846137847496646
289,1.6755651663430040496665274686961
290,1.6762606948074851483130572530489
291,1.6769538287016850102528062274728
292,1.6776445844614740940754732716549
293,1.6783329783540878434543290336210
294,1.6790190264804254291997829669346
295,1.6797027447773079642979005993989
296,1.6803841490197037774729045448934
297,1.6810632548229106769778569186078
298,1.6817400776447045213442962120864
299,1.6824146327874508999252427768441
300,1.6830869354001816738139450648506
301,1.6837570004806367885529319004693
302,1.6844248428772734515425729897481
303,1.6850904772912398472546334960402
304,1.6857539182783169677565490895021
305,1.6864151802508299870493874585978
306,1.6870742774795284424157569126110
307,1.6877312240954324047272862474948
308,1.6883860340916521161367581183404
309,1.6890387213251771844164077659502
310,1.6896892995186356690853066441442
311,1.6903377822620266542249893710100
312,1.6909841830144238211116769703647
313,1.6916285151056514134107312089126
314,1.6922707917379343992028976708315
315,1.6929110259875221494816007911294
316,1.6935492308062870087597682664617
317,1.6941854190232952963872495814652
318,1.6948196033463560898200929669487
319,1.6954517963635449313999409459418
320,1.6960820105447024598980202731593
321,1.6967102582429118857543234424083
322,1.6973365516959514244389908447539
323,1.6979609030277252019715067037283
324,1.6985833242496716097332323918837
325,1.6992038272621508705506670113458
326,1.6998224238558100532718110585557
327,1.7004391257129283565876880182351
328,1.7010539444087398512892877010076
329,1.7016668914127386558148166183512
330,1.7022779780899629767491751925590
331,1.7028872157022594528479532056111
332,1.7034946154095288638059147687537
333,1.7041001882709535823032962603014
334,1.7047039452462049533315231788168
335,1.7053058971966349157088358109390
336,1.7059060548864479238153911479184
337,1.7065044289838560417714941131889
338,1.7071010300622182688889246396511
339,1.7076958686011601608801306433332
340,1.7082889549876798381431472844177
341,1.7088802995172360946776282794597
342,1.7094699123948211047590464310711
343,1.7100578037360173651378622806536
344,1.7106439835680388664482827743657
345,1.7112284618307583131384017271739
346,1.7118112483777178666939833952838
347,1.7123923529771269774922046066619
348,1.7129717853128441169867063280931
349,1.7135495549853459551260816747327
350,1.7141256715126815253238069910371
351,1.7147001443314134645611596053359
352,1.7152729827975460109658367391786
353,1.7158441961874390432223179189676
354,1.7164137936987095762684383770966
355,1.7169817844511210785400243382803
356,1.7175481774874588205306482977063
357,1.7181129817743944936896261255451
358,1.7186762062033393436441079838155
359,1.7192378595912815628691976539066
360,1.7197979506816168807103171266181
361,1.7203564881449640956125220629540
362,1.7209134805799720311424230973752
363,1.7214689365141125114019278175667
364,1.7220228644044643798138964383694
365,1.7225752726384867976335138069742
366,1.7231261695347806998417344164690
367,1.7236755633438413004184219445122
368,1.7242234622487984357114369451970
369,1.7247698743661493784348244649919
370,1.7253148077464798354593139807788
371,1.7258582703751759826923850083615
372,1.7264002701731264935154927307821
373,1.7269408149974145274825268444167
374,1.7274799126420039877476546966276
375,1.7280175708384107387810722279033
376,1.7285537972563702405770804948909
377,1.7290885995044933885537488940862
378,1.7296219851309137265447873200687
379,1.7301539616239278726738899151642
380,1.7306845364126259148652738872311
381,1.7312137168675146514148242109221
382,1.7317415103011307947807371068464
383,1.7322679239686488132435391174300
384,1.7327929650684783741249695128622
385,1.7333166407428550098084573523741
386,1.7338389580784246652018622311432
387,1.7343599241068178759658902277153
388,1.7348795458052175142932159371141
389,1.7353978300969207769099021536957
390,1.7359147838518926043901878111139
391,1.7364304138873108487099254393537
392,1.7369447269681067973992956261389
393,1.7374577298074985277650466474720
394,1.7379694290675156722618354163413
395,1.7384798313595184518680238636059
396,1.7389889432447106283158335447087
397,1.7394967712346460050657371684155
398,1.7400033217917284851412373377108
399,1.7405086013297042515967558643667
400,1.7410126162141503705575631191312
401,1.7415153727629558657324805730913
402,1.7420168772467960095969223341966
403,1.7425171358896026519667778233020
404,1.7430161548690284790336501082874
405,1.7435139403169026682871346409324
406,1.7440104983196840483392369335821
407,1.7445058349189088803512879649860
408,1.7449999561116307642375897805468
409,1.7454928678508555307030464480383
410,1.7459845760459736335731309176575
411,1.7464750865631843024140460597220
412,1.7469644052259150380125279063748
413,1.7474525378152375297544129157585
414,1.7479394900702764187273276209140
415,1.7484252676886151904899083466281
416,1.7489098763266956271199931836074
417,1.7493933216002136670084429025043
418,1.7498756090845088356142289707841
419,1.7503567443149515256721811084435
420,1.7508367327873231087547432941698
421,1.7513155799581928303508551710703
422,1.7517932912452907700436383691856
423,1.7522698720278747029062835842569
424,1.7527453276470944758196533891272
425,1.7532196634063502780503637325463
426,1.7536928845716484129078912629707
427,1.7541649963719520550885579091328
428,1.7546360039995270073718431273651
429,1.7551059126102863690341774589536
430,1.7555747273241269780629400737208
431,1.7560424532252651308014718135215
432,1.7565090953625687285155270356293
433,1.7569746587498811887540821438438
434,1.7574391483663482194170278851714
435,1.7579025691567352791789082732963
436,1.7583649260317436252333172810227
437,1.7588262238683231097021043401678
438,1.7592864675099807067464676654811
439,1.7597456617670854516579979538952
440,1.7602038114171708631156144928302
441,1.7606609212052320084332294689549
442,1.7611169958440207754162144534165
443,1.7615720400143389984933001091562
444,1.7620260583653240584656803787758
445,1.7624790555147362865020152898652
446,1.7629310360492391966984714691835
447,1.7633820045246797163416685018518
448,1.7638319654663616320443093081028
449,1.7642809233693200922268761707371
450,1.7647288826985893183538787384454
451,1.7651758478894710279864071636402
452,1.7656218233477964109657180217463
453,1.7660668134501874017662060149674
454,1.7665108225443136369322034178548
455,1.7669538549491487214363214134339
456,1.7673959149552211009232741219473
457,1.7678370068248642355104707705954
458,1.7682771347924624710057193385241
459,1.7687163030646951214304459413022
460,1.7691545158207784051541688174949
461,1.7695917772127030843277793417496
462,1.7700280913654710206278826550859
463,1.7704634623773292510448884341341
464,1.7708978943199997445818748605078
465,1.7713313912389088085606158700666
466,1.7717639571534132751916513560517
467,1.7721955960570227488849205450056
468,1.7726263119176229299006159159712
469,1.7730561086776924909966297340560
470,1.7734849902545210315714628188203
471,1.7739129605404223763674611608563
472,1.7743400234029475163037983354476
473,1.7747661826850925422985675774522
474,1.7751914422055090760300492121931
475,1.7756158057587061203481423678825
476,1.7760392771152558430964449738055
477,1.7764618600219936272962589109081
478,1.7768835582022170636347097761422
479,1.7773043753558827745945370384237
480,1.7777243151598014647588475775855
481,1.7781433812678297481172625281157
482,1.7785615773110623211114480147565
483,1.7789789068980198613668426689171
484,1.7793953736148354718143916273526
485,1.7798109810254411470265301867037
486,1.7802257326717488465075790979535
487,1.7806396320738330236670237332406
488,1.7810526827301092069072465523041
489,1.7814648881175118608694348255510
490,1.7818762516916693908252987611710
491,1.7822867768870784243567709180858
492,1.7826964671172759583680896280388
493,1.7831053257750093462941737956052
494,1.7835133562324052193975810238658
495,1.7839205618411355345000425337494
496,1.7843269459325839924173150600023
497,1.7847325118180085124633241985336
498,1.7851372627887037081194012281609
499,1.7855412021161608610298936014494
500,1.785944333052227523632898525100
501,1.786346658829262496271820293834
502,1.786748182660293633771862060613
503,1.787148907739169949406362268505
504,1.787548837240715859886989588670
505,1.787947974320880418633855992112
506,1.788346322116887267201178245507
507,1.788743883747383152669021006353
508,1.789140662312584650739709893548
509,1.789536660894421325204360701385
510,1.789931882556681376788861156514
511,1.790326330345153012223941467221
512,1.790720007287765433502653267518
513,1.791112916394728062828203385564
514,1.791505060658668679480373291533
515,1.791896443054770842663999826023
516,1.792287066540908810493705933923
517,1.792676934057781029670565531221
518,1.793066048529043981053925416798
519,1.793454412861443162889634855773
520,1.793842029944944068515405874555
521,1.794228902652859953589639006832
522,1.794615033841980668862209225674
523,1.795000426352698995462248478384
