Eigenstate,Potential Energy
1,0.500000000021221235242025616693305914
2,0.64623093778963571378502796037974230
3,0.73633761011186969196620478930086507
4,0.79966527866175144307254327030402050
5,0.8480465767537485341042239900554906
6,0.8870659991419486974112834630799518
7,0.9197208272642509435176592259823666
8,0.9477838474974619973832425922408953
9,0.9723835588477835015257912473861656
10,0.9942802154637403356271180802085994
11,1.0140093874863405583280644085637139
12,1.0319621702201921725456612952608824
13,1.0484326937310868304982314043014693
14,1.0636476557021567040685928455393453
15,1.0777854372480565593439658943126564
16,1.090988907785407123299662238041896
17,1.103374258494298413657556169688672
18,1.115037253324488614856367093106984
19,1.126057752099381358673968181566420
20,1.136503048149961974511508906697476
21,1.146430374396494558465541659711726
22,1.155888814507262045204063077149380
23,1.164920780835090829832865141989406
24,1.173563171817772910353277500845432
25,1.181848288773992272651786260544721
26,1.189804569710912640670229943697337
27,1.197457182286753315238867325844736
28,1.204828507169829017284669303792329
29,1.211938535240501830545776347241243
30,1.218805196433005770266099839800257
31,1.225444633868166004718632138554132
32,1.231871433850135172009942484491150
33,1.238098819990621430734870138404824
34,1.244138817973536617086396012253656
35,1.250002396133797815481545221871498
36,1.255699585990536771343347462728013
37,1.261239586070887026269153710086565
38,1.266630851730099912762732666875802
39,1.271881173175891896261986011442068
40,1.276997743509104968708164075302371
41,1.281987218276011524230027414680948
42,1.286855767772602546050981862038928
43,1.291609123134711588843977476866583
44,1.296252617079733025282435397512209
45,1.300791220028123456561622158132032
46,1.305229572219738904090959777002696
47,1.309572012346583787242834672045818
48,1.313822603145961327809333055041978
49,1.317985154333352477933631692086710
50,1.32206324320022775463949017128575
51,1.32606023315652940161820342093263
52,1.32997929045921608464006645688452
53,1.33382339933581220841738847245022
54,1.33759537568434281129503908690352
55,1.34129787950755950163697958529523
56,1.34493342621928832965575414685555
57,1.34850439694353152331604501213566
58,1.35201304791215783065516393454002
59,1.35546151905426226359050320246704
60,1.35885184185925153058372705494587
61,1.36218594658614721802860610628259
62,1.36546566888329777511743739169365
63,1.36869275587544846792169932934648
64,1.37186887176880598850163294592231
65,1.37499560301919956488756838607705
66,1.37807446310359307872257480045175
67,1.38110689693094040603091576053363
68,1.38409428492462003576887970441521
69,1.38703794680537235008827721338653
70,1.38993914510073468197938875796391
71,1.39279908840437056222935118445129
72,1.39561893440639132525256019327780
73,1.39839979271371523694641578964496
74,1.40114272747769045917325277411854
75,1.40384875984457706436649552072138
76,1.40651887024303375700401735742219
77,1.40915400052145256027372165525003
78,1.41175505594681892807629924621416
79,1.41432290707572792251800132160670
80,1.41685839150724897140188216779762
81,1.41936231552648237874945358966741
82,1.42183545564688931083124030834398
83,1.42427856005878824639510122386184
84,1.42669234999078658806510532350454
85,1.42907752099035685571009734151882
86,1.43143474412925101719179752428635
87,1.43376466713898904110242880103330
88,1.43606791548123437836619251082989
89,1.43834509335748557741741964721263
90,1.44059678466217002093896832671738
91,1.44282355388290432009374795699388
92,1.44502594695139760464313146299896
93,1.44720449204821169229040083800913
94,1.44935970036434919184925467008428
95,1.45149206682241944080841892463736
96,1.45360207075993035574695798101504
97,1.45569017657706993194530250853834
98,1.45775683435116825424228324572707
99,1.45980248041987740899934758934186
100,1.46182753793496034661705702930684
101,1.46383241738845043989450739210635
102,1.46581751711281790880120156483640
103,1.46778322375667136861804465309463
104,1.46972991273741549369372991285572
105,1.47165794867219271530585296177672
106,1.47356768578834610787240757012463
107,1.47545946831456253580389135837906
108,1.47733363085377589373185735688943
109,1.47919049873884167931560570155582
110,1.48103038837193171770362450114519
111,1.48285360754853199552788099124918
112,1.48466045576687712867559182793995
113,1.48645122452359945228902001447954
114,1.48822619759632196368750266037884
115,1.48998565131388390040335392437549
116,1.49172985481483940387505729747597
117,1.49345907029483800633439014246967
118,1.49517355324345464731857548714935
119,1.49687355267100321252224207556856
120,1.49855931132584174546898849944032
121,1.50023106590263921523813459575738
122,1.50188904724205481034945483184431
123,1.50353348052224853597666689884672
124,1.50516458544262421185182710476938
125,1.50678257640017640195964785346778
126,1.50838766265879760982320660614729
127,1.50998004851188149529610771438654
128,1.51155993343853528158629484435075
129,1.51312751225370244799856702194992
130,1.51468297525247842201562168329742
131,1.51622650834888658021935651588115
132,1.51775829320936689035336746567794
133,1.51927850738121774524361083571464
134,1.52078732441622026333537512878720
135,1.52228491398965622226218513080212
136,1.52377144201492710433191192986651
137,1.52524707075396842487179632824498
138,1.52671195892363990238345071211017
139,1.52816626179826992355333055957568
140,1.52961013130851731019588998879558
141,1.53104371613670883771664635302948
142,1.53246716180880288141535057182587
143,1.53388061078312091678013283227052
144,1.53528420253598142028654352135842
145,1.53667807364436652945625690151527
146,1.53806235786574395217933331251108
147,1.53943718621515841233797475593252
148,1.54080268703970796073618252084011
149,1.54215898609050695226571713154516
150,1.54350620659223933016135983312824
151,1.54484446931039813157472434684078
152,1.54617389261630151361136992221570
153,1.54749459254997424949912434895277
154,1.54880668288097859410358959132522
155,1.55011027516727275475707467411660
156,1.55140547881217483373709630656508
157,1.55269240111950328897050988862271
158,1.55397114734696573103695176065522
159,1.5552418207578597292771964060206
160,1.5565045226711519645163520706919
161,1.5577593525099942244930571866604
162,1.5590064078487357030662686214044
163,1.5602457844584864564691338680827
164,1.5614775763512866531751158621864
165,1.5627018758229302175642299840718
166,1.5639187734944933829482557371225
167,1.5651283583526153862445875569027
168,1.5663307177885739931823818515860
169,1.5675259376362009161017336117259
170,1.5687141022086768674317615044306
171,1.5698952943342464432785192690270
172,1.5710695953908907037507567099419
173,1.5722370853399928523244178303179
174,1.5733978427590328577299562390416
175,1.5745519448733450032655429116344
176,1.5756994675869680698590733478186
177,1.5768404855126214133864304145520
178,1.5779750720008360906122787441137
179,1.5791032991682674786691374679623
180,1.5802252379252203344436458031368
181,1.5813409580024089424261250453200
182,1.5824505279769800463786401566171
183,1.5835540152978216140654339331558
184,1.5846514863101816765515606028770
185,1.5857430062796190501627082417157
186,1.5868286394153069096952698738620
187,1.5879084488927130133435249580680
188,1.5889824968756720156278269118991
189,1.5900508445378735993807646115742
190,1.5911135520837820778350907397641
191,1.5921706787690066893310946692241
192,1.5932222829201389668114975177480
193,1.5942684219540754859162795620741
194,1.5953091523968393324240062792590
195,1.5963445299019182213616542163364
196,1.5973746092681329596456245948892
197,1.5983994444570506275371758329734
198,1.5994190886099566408534117444813
199,1.6004335940643985277492902735417
200,1.6014430123703153602315905450526
201,1.6024473943057638167836499598958
202,1.6034467898922542522121676985783
203,1.6044412484097074293980122541475
204,1.6054308184110435278126128156325
205,1.6064155477364133941118388612740
206,1.6073954835270850535042888409912
207,1.6083706722389913525194654110346
208,1.6093411596559529545803847191301
209,1.6103069909025824312082302070898
210,1.6112682104568809444579704364515
211,1.6122248621625348795414068046871
212,1.6131769892409226547596173665006
213,1.6141246343028360866327321794577
214,1.6150678393599312859105618091245
215,1.6160066458359082906886515279368
216,1.6169410945774333910802610270492
217,1.6178712258648081044796062862644
218,1.6187970794223937738592479171188
219,1.6197186944287950620304100374779
220,1.6206361095268148499867330217190
221,1.6215493628331784416140349755285
222,1.6224584919480442721239974867305
223,1.6233635339642946810354684661420
224,1.6242645254766218089938707270655
225,1.6251615025904111749635012157281
226,1.6260545009304264717256474383709
227,1.6269435556493042225211188427215
228,1.6278287014358601090284245379848
229,1.6287099725232141228129624139424
230,1.6295874026967392264754604974611
231,1.6304610253018353137540690062240
232,1.6313308732515388774846128612880
233,1.6321969790339633709070950946259
234,1.6330593747195864083678741230603
235,1.6339180919683769765007966600662
236,1.6347731620367723546387696349650
237,1.6356246157845083645656658108381
238,1.6364724836813046806021080983816
239,1.6373167958134106355873239440019
240,1.6381575818900136761556214218333
241,1.6389948712495147486372551608001
242,1.6398286928656734715145852607631
243,1.6406590753536271251868506658323
244,1.6414860469757851472596857224123
245,1.6423096356476035064497199073418
246,1.6431298689432414736511381703831
247,1.6439467741011021719288418174489
248,1.6447603780292644859712445331375
249,1.6455707073108012994969360659914
250,1.6463777882089944447145072761261
251,1.6471816466724442632411039021477
252,1.6479823083400765763729613209773
253,1.6487797985460521363047243037697
254,1.6495741423245782145479303992047
255,1.6503653644146262069714929323681
256,1.6511534892645553402243521814858
257,1.6519385410366488702780188871357
258,1.6527205436115592171411149017009
259,1.6534995205926688385896266776628
260,1.6542754953103672286106335510265
261,1.6550484908262443536099007476681
262,1.6558185299372052511086132044062
263,1.6565856351795046408092249168680
264,1.6573498288327069981815550701794
265,1.6581111329235706150945996092341
266,1.6588695692298578145244003143412
267,1.6596251592840745318677775631126
268,1.6603779243771392958587996687034
269,1.6611278855619858782848638742462
270,1.6618750636570953359243497620177
271,1.6626194792499667279397554337452
272,1.6633611527005204875680052186262
273,1.6641001041444418904996202904189
274,1.6648363534964618282415657867277
275,1.6655699204535787613201949689077
276,1.6663008244982201299537711739099
277,1.6670290849013507054853070141563
278,1.6677547207255196365000795489351
279,1.6684777508278576920732629214345
280,1.6691981938630167949938897192968
281,1.6699160682860597337689735883572
282,1.6706313923552975496567403023493
283,1.6713441841350778111555694949712
284,1.6720544614985209324646917108832
285,1.6727622421302113431575217916294
286,1.6734675435288395337934460236738
287,1.6741703830098000367397972180973
288,1.6748707777077417439602871139413
289,1.6755687445790752098146563143549
290,1.6762643004044376713772394730866
291,1.6769574617911136271951036458780
292,1.6776482451754138593727235194753
293,1.6783366668250168047381841294347
294,1.6790227428412673119857869659953
295,1.6797064891614348719203932283345
296,1.6803879215609389063436419414476
297,1.6810670556555310472872014411396
298,1.6817439069034437233247664276171
299,1.6824184906075018557980670934942
300,1.6830908219171994155406013103349
301,1.6837609158307412515141483574551
302,1.6844287871970522842687784881513
303,1.6850944507177512373323627137577
304,1.6857579209490924840366696123453
305,1.6864192123038774382840306238536
306,1.6870783390533347524517215419227
307,1.6877353153289665043848458134582
308,1.6883901551243678519037936093665
309,1.6890428722970162440889405643707
310,1.6896934805700305244865504689108
311,1.6903419935339035211359675286813
312,1.6909884246482056365480723540021
313,1.6916327872432608303810881981212
314,1.6922750945217967990847710604438
315,1.6929153595605686721535843925080
316,1.6935535953119576006279937900205
317,1.6941898146055417764464676373064
318,1.6948240301496452338904433074949
319,1.6954562545328615746819363011678
320,1.6960865002255526179891918393947
321,1.6967147795813258942721994559902
322,1.6973411048384870973966771363892
323,1.6979654881214710090527036596820
324,1.6985879414422498726155035070588
325,1.6992084767017209784263867627903
326,1.6998271056910716977181102238929
327,1.7004438400931247859372592451926
328,1.7010586914836611446558950337265
329,1.7016716713327250169283735497906
330,1.7022827910059080477564070534900
331,1.7028920617656136482363070621331
332,1.7034994947723027246095113044862
333,1.7041051010857211507511380448311
334,1.7047088916661071680997001027912
335,1.7053108773753830279395868854204
336,1.7059110689783269340673124332207
337,1.7065094771437281580669592158601
338,1.7071061124455263860258284096389
339,1.7077009853639313611765587002125
340,1.7082941062865289137851330253483
341,1.7088854855093690918417673416760
342,1.7094751332380388896828516403809
343,1.7100630595887192123126396725097
344,1.7106492745892260691105912815524
345,1.7112337881800378162375968683929
346,1.7118166102153059225154047147524
347,1.7123977504638528241164717766351
348,1.7129772186101536797675127752945
349,1.7135550242553055713705465760789
350,1.7141311769179816923610328561733
351,1.7147056860353726113858977155072
352,1.7152785609641142936463833974620
353,1.7158498109812021642629831193177
354,1.7164194452848926281188775676361
355,1.7169874729955924114452693811266
356,1.7175539031567339349174791700153
357,1.7181187447356399572865752763694
358,1.7186820066243767335341821467710
359,1.7192436976405914326762302190856
360,1.7198038265283427531215305362947
361,1.7203624019589164804418695868076
362,1.7209194325316324691408214234177
363,1.7214749267746376440226504357132
364,1.7220288931456900451429814985248
365,1.7225813400329321526971899964986
366,1.7231322757556523695044906347041
367,1.7236817085650375530874957195089
368,1.7242296466449133860653591467754
369,1.7247760981124772173955690533837
370,1.7253210710190190876296430066575
371,1.7258645733506337914818991280118
372,1.7264066130289229341811204907627
373,1.7269471979116869483110734373260
374,1.7274863357936113796099501426946
375,1.7280240344069381332897167690915
376,1.7285603014221331370815763048994
377,1.7290951444485422102091529637125
378,1.7296285710350383056920030268069
379,1.7301605886706619657720068461187
380,1.7306912047852517472184058773006
381,1.7312204267500674919385572158717
382,1.7317482618784035610548553916999
383,1.7322747174261967071005886210803
384,1.7327998005926235480261069935598
385,1.7333235185206912642606555879037
386,1.7338458782978221774727164693082
387,1.7343668869564279603544693736336
388,1.7348865514744774142182957561592
389,1.7354048787760584890787945439156
390,1.7359218757319317353142814957658
391,1.7364375491600755038349217357606
392,1.7369519058262265031214875105453
393,1.7374649524444131866067291256956
394,1.7379766956774805514818101029025
395,1.7384871421376092057858149460499
396,1.7389962983868283546307125189189
397,1.7395041709375223354542217319271
398,1.7400107662529307104196464862578
399,1.7405160907476404817378083599872
400,1.7410201507880747298528939621471
401,1.7415229526929737233957336847884
402,1.7420245027338692461046542858881
403,1.7425248071355549614374542348072
404,1.7430238720765507079477364278577
405,1.7435217036895581908541520236253
406,1.7440183080619141788204837773166
407,1.7445136912360383226501558883576
408,1.7450078592098730990719925857880
409,1.7455008179373187406777685101598
410,1.7459925733286656664726855033233
411,1.7464831312510186730399745829590
412,1.7469724975287164688919539037086
413,1.7474606779437476310497923815789
414,1.7479476782361594076808177172630
415,1.7484335041044636507384212451985
416,1.7489181612060363082208126061828
417,1.7494016551575133245181663149055
418,1.7498839915351801120672990044298
419,1.7503651758753588728085392877273
420,1.7508452136747887513494841696086
421,1.7513241103910027720023233753789
422,1.7518018714427008412797514217940
423,1.7522785022101166519722566243173
424,1.7527540080353821025142170486586
425,1.7532283942228856109806091772686
426,1.7537016660396279305369900914491
427,1.7541738287155729509539107259043
428,1.7546448874439934998550942924075
429,1.7551148473818160560681740717622
430,1.7555837136499572371645925117291
431,1.7560514913336595648230724003663
432,1.7565181854828236575113125938392
433,1.7569838011123321883623517377104
434,1.7574483432023767061624176627667
435,1.7579118166987751431031017185237
436,1.7583742265132879102667728836097
437,1.7588355775239307421932489842919
438,1.7592958745752832725691554187966
439,1.7597551224787940223221814838623
440,1.7602133260130828713100284577499
441,1.7606704899242381734338348953154
442,1.7611266189261120787977725908482
443,1.7615817177006137105865257722022
444,1.7620357908979948160059946300436
445,1.7624888431371372219214245644524
446,1.7629408790058331195156489891019
447,1.7633919030610653471104215800942
448,1.7638419198292808893252662776585
449,1.7642909338066654330516398927982
450,1.7647389494594111326559869088558
451,1.7651859712239850874776132587736
452,1.7656320035073913729418597712249
453,1.7660770506874323683309263779208
454,1.7665211171129657701324506292970
455,1.7669642071041609148080711836581
456,1.7674063249527497079512482779699
457,1.7678474749222768555108810953757
458,1.7682876612483457929457606431544
459,1.7687268881388628262042332602098
460,1.7691651597742791268393439216371
461,1.7696024803078284309531870784762
462,1.7700388538657636549873924941023
463,1.7704742845475910320986558997261
464,1.7709087764262999299912816366500
465,1.7713423335485923189091749423956
466,1.7717749599351090204498075518194
467,1.7722066595806520176821094738324
468,1.7726374364544078421744266762334
469,1.7730672945001645145940362868973
470,1.7734962376365295633837679237104
471,1.7739242697571433885861569162143
472,1.7743513947308922683910611127957
473,1.7747776164021163592717045116213
474,1.7752029385908201936664309830215
475,1.7756273650928745979223194642810
476,1.7760508996802225442686950504443
477,1.7764735461010792697772405221659
478,1.7768953080801313382585626498562
479,1.7773161893187335344384007172854
480,1.7777361934951039849541851875916
481,1.7781553242645160570049065726221
482,1.7785735852594906033991400651303
483,1.7789909800899839339552767091317
484,1.7794075123435743329644190436334
485,1.7798231855856485995477184457202
486,1.7802380033595831956552696061368
487,1.7806519691869268504426066945192
488,1.7810650865675792174635068158731
489,1.7814773589799688127304483190255
490,1.7818887898812280966379388160687
491,1.7822993827073678338986047630193
492,1.7827091408734493195442715414266
493,1.7831180677737544458636028448700
494,1.7835261667819547041765503700595
495,1.7839334412512773138000692150234
496,1.7843398945146717224814725907192
497,1.7847455298849721636740293242077
498,1.7851503506550602157589974747227
499,1.7855543600980248603833255264486
500,1.785957561467322170231081373393
501,1.786359957996930372082524268647
502,1.786761552901507740153474152117
503,1.787162349376544787649681187626
504,1.787562350598518600178186213042
505,1.787961559725042158281642085103
506,1.788359979895014378979777299791
507,1.788757614228768724138724719404
508,1.789154465828220015415089099735
509,1.789550537777007686451295035371
510,1.789945833140641525339664865117
511,1.790340354966643138210803003035
512,1.790734106284687033919271421811
513,1.791127090106739945339319880684
514,1.791519309427199063509241668711
515,1.791910767223029558698332908314
516,1.792301466453899598560914788020
517,1.792691410062313937943702684035
518,1.793080600973747865560579174275
519,1.793469042096778289306664518978
520,1.793856736323214817043738255176
521,1.794243686528227627914143651020
522,1.794629895570476410213273105822
523,1.795015366292236802806752809430
