Eigenstate,Potential Energy
1,0.500000000113827432848395854132775420
2,0.64623093839412328502505378452047338
3,0.73633761188751489516672587373397012
4,0.79966528236025114929538178995390950
5,0.8480465831603808140416194186565839
6,0.8870660090557817953404789493129065
7,0.9197208414908576890256181739379513
8,0.9477838668458874034174051233963294
9,0.9723835841291401985927418309846917
10,0.9942802474905007656920575125595371
11,1.0140094270719571784040878096411680
12,1.0319622181788848140497365366650777
13,1.0484327508777210658826584511500965
14,1.0636477228521745954133721325484811
15,1.0777855152174390152277413517043051
16,1.090988997390656117782288557433053
17,1.103374360552432132777167105195405
18,1.115037368653045280212613017867421
19,1.126057881516429035942331391875159
20,1.136503192474112611684269890782566
21,1.146430534446921079773256662884075
22,1.155888991103717697277417029281593
23,1.164920974797930218949052966591912
24,1.173563383967974331592377502305568
25,1.181848519933181042301191787930169
26,1.189804820701385220015819051263488
27,1.197457453931502068160170243826006
28,1.204828800292567483028581180871405
29,1.211938850665690421413460465147062
30,1.218805534985877824864952967952471
31,1.225444996374754143046876220430395
32,1.231871821137297910430724689215331
33,1.238099232886070023890931937830435
34,1.244139257305862100735270883240589
35,1.250002862732498229618116763368985
36,1.255700080686044547200493643154375
37,1.261240109694596524126262608958018
38,1.266631405114395100151262658071724
39,1.271881757154174158290841709707600
40,1.276998358915821043955143076052714
41,1.281987865946681561046636741532605
42,1.286856448543848275274284909427181
43,1.291609837844284609852555099379573
44,1.296253366566543203114219524646983
45,1.300792005132267428461393165759003
46,1.305230393782528694399195535041260
47,1.309572871210575529994931000235242
48,1.313823500154984096801252468991773
49,1.317986090332537224338759224094702
50,1.32206421903603635254217948539900
51,1.32606124967678380207081432468518
52,1.32998034851312757905812360255438
53,1.33382449977401080230784486737809
54,1.33759651935890670946989885456486
55,1.34129906727204470620217430884803
56,1.34493465892875835218642991637783
57,1.34850567545458721273661142447346
58,1.35201437308296731843835029033912
59,1.35546289174459102797471005592913
60,1.35885326293049258158518589833335
61,1.36218741690135140509434674019643
62,1.36546718930720421932861329839260
63,1.36869432727451512071464912436022
64,1.37187049501124031892748771181155
65,1.37499727897498937748092567711810
66,1.37807619264453746409561221755112
67,1.38110868093068082635258665380510
68,1.38409612425867154732946939320900
69,1.38703984235115496518843169914393
70,1.38994109773760487241880647906073
71,1.39280109901365290670622674983823
72,1.39562100387141030301791998512389
73,1.39840192191982717009073138736213
74,1.40114491731231560595396142223445
75,1.40385101119723186601633048805513
76,1.40652118400536324048978005607333
77,1.40915637758726289950514606685319
78,1.41175749721211016609376524991260
79,1.41432541343872685721671329367064
80,1.41686096386844220737848974230021
81,1.41936495478864954788580197151583
82,1.42183816271513646425803622354448
83,1.42428133584058142050640783263240
84,1.42669519539598554728275404494210
85,1.42908043693124901472544589050199
86,1.43143773152058554544026285973358
87,1.43376772689801115225497817292117
88,1.43607104852771980765017347003549
89,1.43834830061377524960797086929029
90,1.44060006705320491189107588334083
91,1.44282691233626051471450525520524
92,1.44502938239732155423266821846267
93,1.44720800541965567421017994029531
94,1.44936329259700697450617386831702
95,1.45149573885476215697363865961809
96,1.45360582353324258725896310050223
97,1.45569401103548600887813577107579
98,1.45776075144170877165083004204279
99,1.45980648109248596438608602218779
100,1.46183162314254050129637844650205
101,1.46383658808690290746388788743162
102,1.46582177426107797396152698291852
103,1.46778756831674653961878393898193
104,1.46973434567442339171353775546286
105,1.47166247095439920411291574494282
106,1.47357229838720366714451651966670
107,1.47546417220474888152368071940145
108,1.47733842701323284910879101112607
109,1.47919538814881429972318292941606
110,1.48103537201700767315723654320381
111,1.48285868641668121426680727547490
112,1.48466563084949170545091350631929
113,1.48645649681553382499818953952372
114,1.48823156809593336203597419096288
115,1.48999112102307307031377761401960
116,1.49173542473909161140537996971562
117,1.49346474144326432490765170583325
118,1.49517932662883353210930841540588
119,1.49687942930982236588692364415056
120,1.49856529223834027735178575425770
121,1.50023715211285010252690395913029
122,1.50189523977784765920196635103495
123,1.50353978041537265118240439615065
124,1.50517099372875197734080424780369
125,1.50678909411894697661698303408042
126,1.50839429085386094281550931914358
127,1.50998678823094266516422769066989
128,1.51156678573339916340835877108608
129,1.51313447818031871297702867732564
130,1.51469005587098687389277362977994
131,1.51623370472366283297741357653697
132,1.51776560640906839170801217691564
133,1.51928593847883015049195323036897
134,1.52079487448910416417476682860376
135,1.52229258411959423525056397833582
136,1.52377923328817132371578060348439
137,1.52525498426128824456546555836757
138,1.52671999576037021194036585764610
139,1.52817442306435968302866816927798
140,1.52961841810857850885956553173028
141,1.53105212958006584163562480885488
142,1.53247570300954217498618431517390
143,1.53388928086014124335466285283220
144,1.53529300261304432709729666635025
145,1.53668700485014732211203969483729
146,1.53807142133388306406747571530679
147,1.53944638308431319433605754266090
148,1.54081201845360489670306340654264
149,1.54216845319799430585138001453313
150,1.54351581054734022854343966803102
151,1.54485421127236409180212934621614
152,1.54618377374966641730592548454080
153,1.54750461402460877174035973869060
154,1.54881684587214509239558844304134
155,1.55012058085568062405204215162551
156,1.55141592838403633356768526553127
157,1.55270299576658984881987220278188
158,1.55398188826666474015592108847256
159,1.5552527091532318172377907603101
160,1.5565155597509887788733906345632
161,1.5577705394888767120086305040135
162,1.5590177459470929010363966430497
163,1.5602572749026548007780681338597
164,1.5614892203735698097901544108529
165,1.5627136746616594442731275970844
166,1.5639307283940884282308407700391
167,1.5651404705636459322627508029071
168,1.5663429885678216499656889501148
169,1.5675383682467217741007386982401
170,1.5687266939198646157077253441804
171,1.5699080484218960606958238344702
172,1.5710825131372627306386168354088
173,1.5722501680338782501749105664708
174,1.5734110916958184646036732441489
175,1.5745653613550795926794382810995
176,1.5757130529224290210386155034707
177,1.5768542410173820008718900527808
178,1.5779889989973334013188918333320
179,1.5791173989858709646131802292270
180,1.5802395119003010094602471686716
181,1.5813554074784092313195228321005
182,1.5824651543044842950640125969597
183,1.5835688198346272693807263044710
184,1.5846664704213711445390679341744
185,1.5857581713376322417448668573423
186,1.5868439868000144827928683389679
187,1.5879239799914903206145666856596
188,1.5889982130834737671339294208414
189,1.5900667472573092496208521396422
190,1.5911296427251919467200395343260
191,1.5921869587505388268109265914255
192,1.5932387536678267710045718438839
193,1.5942850849019160847322606990524
194,1.5953260089868727388158906471573
195,1.5963615815843072724889209095363
196,1.5973918575012440503793179450400
197,1.5984168907075352488891319656401
198,1.5994367343528337340659585591780
199,1.6004514407831376649392097295176
200,1.6014610615569207626408203531685
201,1.6024656474608592218507317946025
202,1.6034652485251686408466365248381
203,1.6044599140385616250038990484415
204,1.6054496925628376787810486269179
205,1.6064346319471153516751645616075
206,1.6074147793417196570219621211556
207,1.6083901812117306344451052144912
208,1.6093608833502072775435064785063
209,1.6103269308910925698301511403562
210,1.6112883683218111247110887646138
211,1.6122452394955667886540238835657
212,1.6131975876433504348655354872037
213,1.6141454553856623255647877700336
214,1.6150888847439640187399409491243
215,1.6160279171518590258202684256187
216,1.6169625934660161749249714116941
217,1.6178929539768396389383388459196
218,1.6188190384188946010724506009791
219,1.6197408859810918310704729467879
220,1.6206585353166436803952610145884
221,1.6215720245527893989177291570867
222,1.6224813913003069706976121838467
223,1.6233866726628050299187312863895
224,1.6242879052458099165130771492060
225,1.6251851251656504282564339098983
226,1.6260783680581438075207158892511
227,1.6269676690870916057774535714647
228,1.6278530629525872363072314641278
229,1.6287345838991423675155733371820
230,1.6296122657236368433550089203294
231,1.6304861417830939203846838503157
232,1.6313562450022912306529525221055
233,1.6322226078812024561775686259210
234,1.6330852625022858613662247195437
235,1.6339442405376128547561337313569
236,1.6347995732558462791288602512513
237,1.6356512915290720504182254760832
238,1.6364994258394858767194388063357
239,1.6373440062859404932818281613334
240,1.6381850625903555672109461438389
241,1.6390226241039945535410559911555
242,1.6398567198136113589486570417056
243,1.6406873783474708442060244310834
244,1.6415146279812448539413352140288
245,1.6423384966437881471552736148233
246,1.6431590119227967474071903675682
247,1.6439762010703500948058491512641
248,1.6447900910083445807185729040788
249,1.6456007083338134340798064234922
250,1.6464080793241433437922605328640
251,1.6472122299421857170292065548132
252,1.6480131858412653717385880877535
253,1.6488109723700917353657971889887
254,1.6496056145775722064700628954447
255,1.6503971372175315590912620188789
256,1.6511855647533374750705155301234
257,1.6519709213624385955129824043241
258,1.6527532309408115359050363626314
259,1.6535325171073236681993133011045
260,1.6543088032080120560427155148428
261,1.6550821123202788566867977433557
262,1.6558524672570079148027310651443
263,1.6566198905706013985882162886139
264,1.6573844045569419288356629987525
265,1.6581460312592787260139876900308
266,1.6589047924720399429341032347948
267,1.6596607097445743960758893596246
268,1.6604138043848227291350048804226
269,1.6611640974629222785579552590168
270,1.6619116098147413650698531077665
271,1.6626563620453522950244679117589
272,1.6633983745324370510257710154261
273,1.6641376674296331148317380227752
274,1.6648742606698166314673327170544
275,1.6656081739683267900489233609914
276,1.6663394268261296996072864178074
277,1.6670680385329292438734504619530
278,1.6677940281702166696356726539746
279,1.6685174146142704118147622663807
280,1.6692382165390982488179681151411
281,1.6699564524193296777047549789799
282,1.6706721405330560061587801360758
283,1.6713852989646213744519840882746
284,1.6720959456073618646946659162699
285,1.6728040981662995054042908688751
286,1.6735097741607871969276378011126
287,1.6742129909271096178161120627606
288,1.6749137656210365147538394260840
289,1.6756121152203330249439307449133
290,1.6763080565272277643438511082194
291,1.6770016061708365235677941612550
292,1.6776927806095444572622580316974
293,1.6783815961333506736472204503353
294,1.6790680688661702620790690284526
295,1.6797522147680958467350238264603
296,1.6804340496376262529654907133952
297,1.6811135891138522190368178441106
298,1.6817908486786084710433080044693
299,1.6824658436585889648912439035968
300,1.6831385892274270470270378179815
301,1.6838091004077409464439913132657
302,1.6844773920731466920109376917550
303,1.6851434789502356293998741691322
304,1.6858073756205201163064912712239
305,1.6864690965223488256846475336131
306,1.6871286559527909214375834539554
307,1.6877860680694862897857499118371
308,1.6884413468924693060404913774264
309,1.6890945063059622273739001270261
310,1.6897455600601385480883760558118
311,1.6903945217728599136778821800406
312,1.6910414049313841082301082914342
313,1.6916862228940455093735656528225
314,1.6923289888919098165233274976113
315,1.6929697160304023735904747226657
316,1.6936084172909114633507160266080
317,1.6942451055323641136655811372775
318,1.6948797934927797684297064104543
319,1.6955124937907989664660786129041
320,1.6961432189271870313352966705841
321,1.6967719812863166927310401199452
322,1.6973987931376257556811172893783
323,1.6980236666370533334122476186830
324,1.6986466138284536228926438809190
325,1.6992676466449889869400367416015
326,1.6998867769105005820835101919734
327,1.7005040163408593549345523585912
328,1.7011193765452945983190271330828
329,1.7017328690277050441226448938433
330,1.7023445051879489266732700410855
331,1.7029542963231144574348235120093
332,1.7035622536287717744934606616330
333,1.7041683882002067476861714495530
334,1.7047727110336348257420024709366
335,1.7053752330273992427740028026671
336,1.7059759649831496446390152441384
337,1.7065749176070040099411301265993
338,1.7071721015106949271127970641652
339,1.7077675272126962947403590491425
340,1.7083612051393365391848563124745
341,1.7089531456258940658726248388591
342,1.7095433589176774442523834423525
343,1.7101318551710899671408574293390
344,1.7107186444546785811668037883559
345,1.7113037367501690107216170626077
346,1.7118871419534845533694670712131
347,1.7124688698757521153136230126506
348,1.7130489302442923019579363631854
349,1.7136273327035971118932772633480
350,1.7142040868162927801422894007131
351,1.7147792020640898618442255773285
352,1.7153526878487202424211299424618
353,1.7159245534928603623714628471069
354,1.7164948082410420750343234873257
355,1.7170634612605515065777829047408
356,1.7176305216423141320712632299154
357,1.7181959984017693108655125656545
358,1.7187599004797335295785601843958
359,1.7193222367432481022319526960320
360,1.7198830159864202699888344839157
361,1.7204422469312494500022913138757
362,1.7209999382284451197504340966831
363,1.7215560984582309373654961095679
364,1.7221107361311401269844168932626
365,1.7226638596888003706504537679385
366,1.7232154775047070897441459001693
367,1.7237655978849880133991847680080
368,1.7243142290691558282354302740210
369,1.7248613792308535476998822696573
370,1.7254070564785883201047026509071
371,1.7259512688564565347349687429037
372,1.7264940243448591887544605887548
373,1.7270353308612074880246315153906
374,1.7275751962606229969142131541173
375,1.7281136283366230354365871125570
376,1.7286506348218027868956812562353
377,1.7291862233885059124097752143260
378,1.7297204016494868470780840114297
379,1.7302531771585666251652943949392
380,1.7307845574112789988431949123387
381,1.7313145498455097339375803384477
382,1.7318431618421262090710020159551
383,1.7323704007256020013379242803152
384,1.7328962737646314309198888569172
385,1.7334207881727376948623490802931
386,1.7339439511088752578778624565828
387,1.7344657696780222590114881003014
388,1.7349862509317668807292965221420
389,1.7355054018688883651606139280113
390,1.7360232294359298769590248090838
391,1.7365397405277635403609002267430
392,1.7370549419881512697968410596311
393,1.7375688406102988788300876325620
394,1.7380814431374020601478198441064
395,1.7385927562631871054611611861381
396,1.7391027866324460285183865000496
397,1.7396115408415657338520603735545
398,1.7401190254390512524933194841107
399,1.7406252469260416239407704022168
400,1.7411302117568227382533889301634
401,1.7416339263393332015226086825761
402,1.7421363970356639847204951092588
403,1.7426376301625546919025222854843
404,1.7431376319918843565593847069242
405,1.7436364087511542477730951302366
406,1.7441339666239688119139954471768
407,1.7446303117505118838348162654025
408,1.7451254502280156885367288403539
409,1.7456193881112255127255257675557
410,1.7461121314128625796666696463135
411,1.7466036861040794068876537559704
412,1.7470940581149112494770178615602
413,1.7475832533347247288525087749685
414,1.7480712776126600923305432967782
415,1.7485581367580714096416125607314
416,1.7490438365409611589277742308840
417,1.7495283826924120743803544895133
418,1.7500117809050134431861264357199
419,1.7504940368332861555424350079464
420,1.7509751560941015157577726218645
421,1.7514551442670977935658236773195
422,1.7519340068950938251331409068334
423,1.7524117494844975286878905703850
424,1.7528883775057129782750222503622
425,1.7533638963935424457757102382011
426,1.7538383115475870498718000142212
427,1.7543116283326435295042826617384
428,1.7547838520790971895741316174297
429,1.7552549880833149665067923358397
430,1.7557250416080315122459925659166
431,1.7561940178827358380567029559648
432,1.7566619221040557067071254570126
433,1.7571287594361351513495044150959
434,1.7575945350110162608995600256493
435,1.7580592539290130989225049365264
436,1.7585229212590857019075471694751
437,1.7589855420392123648063837918842
438,1.7594471212767592440665776792773
439,1.7599076639488480093840413212482
440,1.7603671750027226671234318730675
441,1.7608256593561127688806930529465
442,1.7612831218975966244282701107535
443,1.7617395674869642243803074698072
444,1.7621950009555745517327027924059
445,1.7626494271067166749389638856277
446,1.7631028507159657112030425094907
447,1.7635552765315408959094752795490
448,1.7640067092746590456564188173539
449,1.7644571536398913273122674728674
450,1.7649066142955155601703680017228
451,1.7653550958838716318267784529672
452,1.7658026030217129496193470836846
453,1.7662491403005597543354715917306
454,1.7666947122870507720119527402561
455,1.7671393235232969179860475746371
456,1.7675829785272324440349697022473
457,1.7680256817929683218666056278343
458,1.7684674377911443602820296408483
459,1.7689082509692826754217326592330
460,1.7693481257521422661742129242013
461,1.7697870665420726586188968195877
462,1.7702250777193699513510726840301
463,1.7706621636426339891184154052219
464,1.7710983286491249543850134208483
465,1.7715335770551234796006834471215
466,1.7719679131562915504710418862536
467,1.7724013412280336261713879311343
468,1.7728338655258631436673220899070
469,1.7732654902857670407581262876621
470,1.7736962197245759870059443579584
471,1.7741260580403347612934353568001
472,1.7745550094126772526265820206768
473,1.7749830780032016218187435770539
474,1.7754102679558533228661697536334
475,1.7758365833973051101145518563185
476,1.7762620284373467572624436131787
477,1.7766866071692750428296881351990
478,1.7771103236702889095474339066554
479,1.7775331820018889288322156082422
480,1.7779551862102817176180011354262
481,1.7783763403267881224697936846239
482,1.7787966483682590158739001191799
483,1.7792161143374943733963430284746
484,1.7796347422236687534612498029805
485,1.7800525360027649725966262057736
486,1.7804694996380108916249478296721
487,1.7808856370803265077598359389160
488,1.7813009522687763116003802741560
489,1.7817154491310305168130721669833
490,1.7821291315838334233871500423376
491,1.7825420035334814655781027512992
492,1.7829540688763099697667727335478
493,1.7833653314991890554907676456748
494,1.7837757952800302544307265049894
495,1.7841854640883025442454544826189
496,1.7845943417855615711431864214734
497,1.7850024322259883025798952656382
498,1.7854097392569416391667891349678
499,1.7858162667195230964751401702091
500,1.786222018449156331844898627175
501,1.786626998276177939903306296425
502,1.787031210026447684575997615019
503,1.787434657521970385462284102708
504,1.787837344581538091330132324232
505,1.788239275021386218733664267236
506,1.788640452655870260486882944256
507,1.789040881298161833340693270302
508,1.789440564760964675839146513259
509,1.789839506857249850851753318206
510,1.790237711401017285533471533526
511,1.790635182208078018683259975136
512,1.791031923096862257727948031133
513,1.791427937889253130139874352900
514,1.791823230411448146227749635453
515,1.792217804494850164015222095792
516,1.792611663976987563820568597771
517,1.793004812702466290705418393354
518,1.793397254523957225355533144579
519,1.793788993303217438314551256798
520,1.794180032912150061912075752925
521,1.794570377233901563812211275928
522,1.794960030164002805924989918646
523,1.795348995611552560381431234358
