Eigenstate,Potential Energy
1,0.500000000019874266620014551344769590
2,0.64623093778084341119649665055244982
3,0.73633761008604304275554219050065481
4,0.79966527860795756790356838279874612
5,0.8480465766605667242358666742442507
6,0.8870659989977584888135511253445786
7,0.9197208270573382980610213492401599
8,0.9477838472160636211311700485497250
9,0.9723835584801074861726671464922328
10,0.9942802149979766657026577337533282
11,1.0140093869106668476871936101212109
12,1.0319621695227769697935907934557942
13,1.0484326929000916009532538126754552
14,1.0636476547257370500885022332989193
15,1.0777854361143629811896027147512013
16,1.090988906482585491404011138921432
17,1.103374257010490253184833542409999
18,1.115037251647831264394613539603112
19,1.126057750218008042239864717495906
20,1.136503046052001812418441100114664
21,1.146430372070072534153208696194159
22,1.155888811940498939737654318772327
23,1.164920778016103132255971126739793
24,1.173563168734672709722835081330545
25,1.181848285414887135976089792626823
26,1.189804566063905479854103458937118
27,1.197457178339942245350732454280468
28,1.204828502911307207893726836117347
29,1.211938530658357351465133641249395
30,1.218805191515321432733548245298747
31,1.225444628603019198819758063141774
32,1.231871428225597700976891196888886
33,1.238098813994759342623371289179748
34,1.244138811594410034232993491080997
35,1.250002389359460762064732826474856
36,1.255699578809036999310994592831059
37,1.261239578470265839846155619341358
38,1.266630843698391991714254982016188
39,1.271881164701125118056773489314949
40,1.276997734579300229701431896877815
41,1.281987208879182559965208810702292
42,1.286855757896755750763063564486902
43,1.291609112767845834233566847231061
44,1.296252606209839478618490694786050
45,1.300791208643185398161455829757978
46,1.305229560307731544218371712565555
47,1.309571999895474082458720463403998
48,1.313822590143707796803636630534173
49,1.317985140767905016862891344718730
50,1.32206322905952745199030085134883
51,1.32606021842850835261357339340822
52,1.32997927513179720520278933271856
53,1.33382338339690904870210522579217
54,1.33759535912185936879854769183222
55,1.34129786230939003389452883512380
56,1.34493340837331716652948170517721
57,1.34850437843763287888034522882369
58,1.35201302873419561468256713088593
59,1.35546149919208989264061348041567
60,1.35885182130071173869683507587392
61,1.36218592531907186702479438222107
62,1.36546564689550766450127743537017
63,1.36869273315475314439201260557940
64,1.37186884830300355506522834887410
65,1.37499557879607648957537076752190
66,1.37807443811092400290611578720827
67,1.38110687115648795233676600725765
68,1.38409425835613461558824196474464
69,1.38703791943059197067863727852720
70,1.38993911690738475315484546528985
71,1.39279905938016370263597362586851
72,1.39561890453902716822489334284323
73,1.39839976199088023594103789623523
74,1.40114269588705769277509567691581
75,1.40384872737380604086345502972851
76,1.40651883687977021852522616726442
77,1.40915396625332828648670049301223
78,1.41175502076145153943806958617497
79,1.41432287096072068307510565908002
80,1.41685835445019059113415406435168
81,1.41936227751494681545226069727299
82,1.42183541666843557153081556043984
83,1.42427852010096018829149550501917
84,1.42669230904111271899719668755869
85,1.42907747903635013413700732251539
86,1.43143470115840865168498575671396
87,1.43376462313879228934266710280653
88,1.43606787043914834563953811701721
89,1.43834504726095901460424634014263
90,1.44059673749863512199004583729797
91,1.44282350563977651898730528495198
92,1.44502589761607537181676470174626
93,1.44720444160807633054164102487183
94,1.44935964880676463169855420912750
95,1.45149201413473203531825407159971
96,1.45360201692946867479069758991624
97,1.45569012159114455591944715271534
98,1.45775677819707156721561818403547
99,1.45980242308488339129250849174216
100,1.46182747940632436680596986791844
101,1.46383235765340904623109753207559
102,1.46581745615858862004474281647759
103,1.46778316157045246427045590844624
104,1.46972984930638580363209395511103
105,1.47165788398351140880538068557188
106,1.47356761982915248201302978239909
107,1.47545940107197580325362211820759
108,1.47733356231489496990002053570696
109,1.47919042889074496886897781174145
110,1.48103031720167690043850346445912
111,1.48285353504315581159105288600647
112,1.48466038191339516312711840948986
113,1.48645114930900591899972891416563
114,1.48822612100758948856402467426306
115,1.48998557333796330393350577712243
116,1.49172977543865948298631939893600
117,1.49345898950530531555820275860947
118,1.49517347102745327925311982742238
119,1.49687346901539457758633097930501
120,1.49855922621746435093965941115682
121,1.50023097932830844356448493287763
122,1.50188895918856269673521353479042
123,1.50353339097636354522397089752830
124,1.50516449439109101445860276601962
125,1.50678248382971564946296971915251
126,1.50838756855610570938096031359601
127,1.50997995286363038349923478516360
128,1.51155983623137219749385192261967
129,1.51312741347424970538779265188843
130,1.51468287488733318083915413957236
131,1.51622640638462061726170248182120
132,1.51775818963252636907866571171356
133,1.51927840217832298482671068187304
134,1.52078721757376550686817481991668
135,1.52228480549410940412715146750129
136,1.52377133185272961673464381612440
137,1.52524695891153488352443840149727
138,1.52671184538735791133074194270311
139,1.52816614655449983913299011041321
140,1.52961001434359200412501201938284
141,1.53104359743693345929573425204686
142,1.53246704136045461884154269193822
143,1.53388048857244875756116435464298
144,1.53528407854920591074686666597440
145,1.53667794786767953332677855114712
146,1.53806223028530840826211774357193
147,1.53943705681710809123721314882810
148,1.54080255581014722064670356750066
149,1.54215885301551049381022382663227
150,1.54350607165785195026754085572979
151,1.54484433250263447638336271717307
152,1.54617375392114583040646323216083
153,1.54749445195338013765100138630360
154,1.54880654036886875501596039460129
155,1.55011013072553874080887803657578
156,1.55140533242667679620995076755587
157,1.55269225277606972495254468647298
158,1.55397099703139322929369136872638
159,1.5552416684559127150801451271846
160,1.5565043683685624434198581539907
161,1.5577591961924615250499731381704
162,1.5590062495019262184728559418216
163,1.5602456240680333851296046340878
164,1.5614774139027897381761753887478
165,1.5627017113019554850498426926951
166,1.5639186068865728793848763121490
167,1.5651281896432469145669852692611
168,1.5663305469632208478101298507045
169,1.5675257646802916168163933613036
170,1.5687139271076048921046981164213
171,1.5698951170733699594392181537163
172,1.5710694159555322989854852412391
173,1.5722369037154392634949284930276
174,1.5733976589305346990019540394626
175,1.5745517588261164929365070547909
176,1.5756992793061867559749446775883
177,1.5768402949834278981366796898736
178,1.5779748792083337534927096900577
179,1.5791031040975221984017611675000
180,1.5802250405612602096428953621150
181,1.5813407583302240110005401802604
182,1.5824503259815220036571756362427
183,1.5835538109640035296374008653761
184,1.5846512796228777098091277947205
185,1.5857427972236641645348695794681
186,1.5868284279754965855620562996574
187,1.5879082350538029596191989573331
188,1.5889822806223778800017000876216
189,1.5900506258548706772041546490595
190,1.5911133309557050196429686394062
191,1.5921704551804492069867776667714
192,1.5932220568556535382627073658606
193,1.5942681933981730585508287498002
194,1.5953089213339890250132305921294
195,1.5963442963165470245796737031735
196,1.5973743731446254351524209775733
197,1.5983992057797486056133706968086
198,1.5994188473631589165745630268475
199,1.6004333502323605556874152575894
200,1.6014427659372489476715713214715
201,1.6024471452558368154420490145847
202,1.6034465382095902484458845526542
203,1.6044409940783854328901955921180
204,1.6054305614150976587230426489710
205,1.6064152880598325686789709538292
206,1.6073952211538126680860847532556
207,1.6083704071529249660599223082119
208,1.6093408918409439694887030381540
209,1.6103067203424357726373970906190
210,1.6112679371353547379694731233625
211,1.6122245860633401271426378007468
212,1.6131767103477229093004956878698
213,1.6141243525992471245479340116360
214,1.6150675548295207782936531383635
215,1.6160063584621954726842973640423
216,1.6169408043438887295806086095714
217,1.6178709327548529641108509048366
218,1.6187967834194000812442135370948
219,1.6197183955160849683129301060667
220,1.6206358076876603916035318805748
221,1.6215490580508011992995884415323
222,1.6224581842056150281338796192908
223,1.6233632232449330745734848905199
224,1.6242642117633959898282093867374
225,1.6251611858663374552169798421851
226,1.6260541811784689758250954358874
227,1.6269432328523745352907057661008
228,1.6278283755768169219117575790673
229,1.6287096435848628782085445782426
230,1.6295870706618317601700605833966
231,1.6304606901530694954383670302259
232,1.6313305349715582493354399012585
233,1.6321966376053567842203898321607
234,1.6330590301248876582264174259685
235,1.6339177441900644344605917149648
236,1.6347728110572685994179028192509
237,1.6356242615861798107192345232270
238,1.6364721262464612051667706659869
239,1.6373164351243052026788790375758
240,1.6381572179288419595028548721472
241,1.6389945039984147520351866933363
242,1.6398283223067251471800845096623
243,1.6406587014688519899995338336494
244,1.6414856697471458968707745972490
245,1.6423092550570036272414208751945
246,1.6431294849725248525290742204011
247,1.6439463867320527039297234790583
248,1.6447599872436056796680062656381
249,1.6455703130901958801833593125090
250,1.6463773905350439553511673119601
251,1.6471812455266886631443315656891
252,1.6479819037039938376285098548636
253,1.6487793904010578378874273239166
254,1.6495737306520251341287070335453
255,1.6503649491958039103927825905547
256,1.6511530704806897686249823284789
257,1.6519381186689019248482800145271
258,1.6527201176410283414886848905535
259,1.6534990910003865986968725807859
260,1.6542750620773008903636073572691
261,1.6550480539332954578791679399704
262,1.6558180893652091863619718544924
263,1.6565851909092302132361025537982
264,1.6573493808448559993088076539047
265,1.6581106811987773868731614567803
266,1.6588691137486888118661550921856
267,1.6596247000270278826118045364373
268,1.6603774613246443581459465747526
269,1.6611274186944027953195141525339
270,1.6618745929547145881019632642499
271,1.6626190046930086823186417179786
272,1.6633606742691349446636420751855
273,1.6640996218187076283795672980041
274,1.6648358672563861438988493571636
275,1.6655694302790970093029608719156
276,1.6663003303691952582286658667625
277,1.6670285867975727885119141776110
278,1.6677542186267054054936016938250
279,1.6684772447136500624323816654631
280,1.6691976837129843908705439246092
281,1.6699155540796964097566540566657
282,1.6706308740720219095734998034129
283,1.6713436617542327238980967914288
284,1.6720539349993730449092950614129
285,1.6727617114919505900837308006242
286,1.6734670087305786448058654032437
287,1.6741698440305740401634197160214
288,1.6748702345265074676843838936147
289,1.6755681971747107790602243898501
290,1.6762637487557420033625708569079
291,1.6769569058768059226739830498975
292,1.6776476849741330910194184801907
293,1.6783361023153212023533681603171
294,1.6790221740016338444970137861625
295,1.6797059159702587261507421382852
296,1.6803873439965329625218485986932
297,1.6810664736961253512723698718748
298,1.6817433205271849555184584114275
299,1.6824178997924527967164595220637
300,1.6830902266413384080188946111840
301,1.6837603160719616595156283382282
302,1.6844281829331619482701177720569
303,1.6850938419264719262569545765147
304,1.6857573076080593437073848966129
305,1.6864185943906384363663914138134
306,1.6870777165453501198584168603391
307,1.6877346882036081731122566770257
308,1.6883895233589188892707267656145
309,1.6890422358686702833477926061910
310,1.6896928394558911917766493403146
311,1.6903413477109838587485549147955
312,1.6909877740934275224722832617112
313,1.6916321319334543940999178175391
314,1.6922744344336998335897273215434
315,1.6929146946708260421463329006786
316,1.6935529255971206468772730963473
317,1.6941891400420677162681273586108
318,1.6948233507138965577181026981655
319,1.6954555702011054386955503843734
320,1.6960858109739602327684565043998
321,1.6967140853859719094416144897462
322,1.6973404056753489822283606319689
323,1.6979647839664284289933459897093
324,1.6985872322710840617028696092639
325,1.6992077624901141075611467977654
326,1.6998263864146062387557743427748
327,1.7004431157272828715652760877237
328,1.7010579620038239240203380446272
329,1.7016709367141720069741242335043
330,1.7022820512238164802450158417100
331,1.7028913167950578124048417424103
332,1.7034987445882533054333941581115
333,1.7041043456630445627740764995943
334,1.7047081309795648847929035588758
335,1.7053101113996309065524910457271
336,1.7059102976879145359316307060349
337,1.7065087005130980643153345464696
338,1.7071053304490135086861827777401
339,1.7077001979757622496027788417684
340,1.7082933134808210563846066456792
341,1.7088846872601302130593609215847
342,1.7094743295191662422011927334138
343,1.7100622503739988644276847782067
344,1.7106484598523321872413443312950
345,1.7112329678945319425285584461092
346,1.7118157843546362474893950961191
347,1.7123969190013534543357767937541
348,1.7129763815190439004604873448662
349,1.7135541815086891039804465006071
350,1.7141303284888459469733807819180
351,1.7147048318965879339906704105727
352,1.7152777010884332081902665557958
353,1.7158489453412586094470179317018
354,1.7164185738532011888962781762151
355,1.7169865957445475451734737691076
356,1.7175530200586091921184082632828
357,1.7181178557625871969686437346847
358,1.7186811117484253330287762123615
359,1.7192427968336474919412921254723
360,1.7198029197621882934644015937317
361,1.7203614892052086376126336141079
362,1.7209185137619026807476721937520
363,1.7214740019602908312197051953848
364,1.7220279622580037885408095789967
365,1.7225804030430558624455622368889
366,1.7231313326346064494969040691095
367,1.7236807592837125592357554319314
368,1.7242286911740691785927326241463
369,1.7247751364227421070961221461955
370,1.7253201030808889760408703208322
371,1.7258635991344713049175288609457
372,1.7264056325049565515700508148985
373,1.7269462110500101227879817015323
374,1.7274853425641816538030485156128
375,1.7280230347795762482498666227996
376,1.7285592953665221347968049636320
377,1.7290941319342265296482785126377
378,1.7296275520314228723199209984241
379,1.7301595631470112744791735665477
380,1.7306901727106889386063246864718
381,1.7312193880935734219022374259710
382,1.7317472166088158636030590253756
383,1.7322736655122088503537160883017
384,1.7327987420027838833313184268209
385,1.7333224532234020683627965028656
386,1.7338448062613386876794312384235
387,1.7343658081488574026330588658968
388,1.7348854658637780241612258929414
389,1.7354037863300385256741229395913
390,1.7359207764182484874567755798571
391,1.7364364429462342895129632566038
392,1.7369507926795796612139960839129
393,1.7374638323321590612238988053906
394,1.7379755685666624687827469855182
395,1.7384860079951144432054034598640
396,1.7389951571793871024473518933348
397,1.7395030226317066506295930595430
398,1.7400096108151534626406953667535
399,1.7405149281441542915904257433813
400,1.7410189809849708990564585371242
401,1.7415217756561811570263961254496
402,1.7420233184291533667348706612203
403,1.7425236155285166151185033241063
404,1.7430226731326250619610166686396
405,1.7435204973740136231564355148202
406,1.7440170943398511591078200727129
407,1.7445124700723882849635248018664
408,1.7450066305693973058679517162263
409,1.7454995817846071382858986617115
410,1.7459913296281357318611959696970
411,1.7464818799669142518099331310792
412,1.7469712386251066044194126088374
413,1.7474594113845253846949485615858
414,1.7479464039850406699818601236875
415,1.7484322221249859435074255560468
416,1.7489168714615575774574065670105
417,1.7494003576112107240567423308104
418,1.7498826861500487778720119862647
419,1.7503638626142106878296304650051
420,1.7508438925002511008536033695840
421,1.7513227812655172892885305521695
422,1.7518005343285221436919729679475
423,1.7522771570693110671182657460488
424,1.7527526548298263845997153761830
425,1.7532270329142656471666440036003
426,1.7537002965894374372275142164361
427,1.7541724510851121599194605295216
428,1.7546435015943678340977274703494
429,1.7551134532739347953316008029127
430,1.7555823112445321729923783491560
431,1.7560500805912036450668766176444
432,1.7565167663636496201901576397356
433,1.7569823735765511847726760345490
434,1.7574469072098969131376619657763
435,1.7579103722093003643204545613787
436,1.7583727734863161664978726497814
437,1.7588341159187528503941243927742
438,1.7592944043509814137038022418037
439,1.7597536435942402978130497158750
440,1.7602118384269378480074028221878
441,1.7606689935949494169949458102423
442,1.7611251138119126753656980626548
443,1.7615802037595207766569222465805
444,1.7620342680878079963694172005472
445,1.7624873114154371755669525870954
446,1.7629393383299799933810041029924
447,1.7633903533881972375620412722474
448,1.7638403611163122912506015804305
449,1.7642893660102856764448926291756
450,1.7647373725360828065767461818876
451,1.7651843851299424512613092408290
452,1.7656304081986387545386609475540
453,1.7660754461197425496491113736992
454,1.7665195032418783592604303091938
455,1.7669625838849807049884016413980
456,1.7674046923405450231778958895270
457,1.7678458328718778826200036662399
458,1.7682860097143429000689426113969
459,1.7687252270756048674512387602507
460,1.7691634891358717330765095719479
461,1.7696008000481322865412587821519
462,1.7700371639383927603422640331636
463,1.7704725849059109519357697394756
464,1.7709070670234260271139117175367
465,1.7713406143373879733983140572860
466,1.7717732308681838341126691428592
467,1.7722049206103600036138510786106
468,1.7726356875328455992867234254081
469,1.7730655355791693869621105732827
470,1.7734944686676777842620090070903
471,1.7739224906917482089405853190836
472,1.7743496055200020697952017210178
473,1.7747758169965127510110494992569
474,1.7752011289410160938942042312630
475,1.7756255451491122987084847689161
476,1.7760490693924717603811132913648
477,1.7764717054190351710334070744324
478,1.7768934569532125652832430568961
479,1.7773143276960801976615651590181
480,1.7777343213255756466810761629071
481,1.7781534414966896963886683520495
482,1.7785716918416585641443262791363
483,1.7789890759701518545781105120671
484,1.7794055974694590594346637415390
485,1.7798212599046760801338165182199
486,1.7802360668188863577935917011508
487,1.7806500217333434594484299750482
488,1.7810631281476497169001142500236
489,1.7814753895399341462499936248955
490,1.7818868093670275111060408039679
491,1.7822973910646366636121624683222
492,1.7827071380475167513497664382724
493,1.7831160537096412649810487356140
494,1.7835241414243710205319475200180
495,1.7839314045446202686667996839286
496,1.7843378464030231752289142339208
497,1.7847434703120963584192960599510
498,1.7851482795644014277147721012894
499,1.7855522774327050216934957601108
500,1.785955467170138475082012709683
501,1.786357852010352860876517764899
502,1.786759435167676862527598178212
503,1.787160219837268944121042190517
504,1.787560209195271662194063982497
505,1.787959406398960966450018525744
506,1.788357814586896219253585882676
507,1.788755436879068781723721980867
508,1.789152276377048806169592092063
509,1.789548336164128465541879317713
510,1.789943619305467672915486191429
511,1.790338128848235521855496293406
512,1.790731867821751347636456967943
513,1.791124839237624024825451722238
514,1.791517046089890177463904958331
515,1.791908491355151675919523448817
516,1.792299177992710630569488998439
517,1.792689108944702956878356607193
518,1.793078287136232297081426425097
519,1.793466715475501080242186862255
520,1.793854396853941577512970502719
521,1.794241334146343747652441148957
522,1.794627530210984148826696767354
523,1.795012987889752353677164996019
