Eigenstate,Potential Energy
1,0.500000000078892078369834367859872934
2,0.64623093816608191029510947866312930
3,0.73633761121765452032753049525649559
4,0.79966528096498782344775724917037370
5,0.8480465807434536259860509208820617
6,0.8870660053157160141157981407280900
7,0.9197208361237102697222981379116383
8,0.9477838595463879901749911395020237
9,0.9723835745912180286128705841109429
10,0.9942802354075487194316375384835018
11,1.0140094121369720854134307267943620
12,1.0319622000845446957979090248675474
13,1.0484327293164280420400152540693426
14,1.0636476975160780245410022189496061
15,1.0777854857984467063340773310294219
16,1.090988963580438043591615995907874
17,1.103374322042419260394617707281475
18,1.115037325134425122267830670413084
19,1.126057832680138937433908873192478
20,1.136503138010831434280216582463145
21,1.146430474047059726078366108544132
22,1.155888924457408777764839252551182
23,1.164920901595017072849229942933010
24,1.173563303897999551922712035342291
25,1.181848432685374613526659649658457
26,1.189804725964652347855481237693903
27,1.197457351394410760575737404672213
28,1.204828689643335926732361406968002
29,1.211938731592174187531962962061184
30,1.218805407175556929501207206929834
31,1.225444859514719982591250783677963
32,1.231871674914240087020242564372225
33,1.238099076986263073021711627015257
34,1.244139091415152130416422228675341
35,1.250002686536289478420812777609721
36,1.255699893869285866959989179341219
37,1.261239911941767791792428019787196
38,1.266631196109493562277346306464840
39,1.271881536580700710842593801930366
40,1.276998126456766449469498339612652
41,1.281987621284512604637799192623499
42,1.286856191360493860549683652487254
43,1.291609567821121795442256790890099
44,1.296253083384383180219867787744133
45,1.300791708471341439582314917793840
46,1.305230083322473893184953917619870
47,1.309572546630420781997796110929246
48,1.313823161133135720752630479546408
49,1.317985736546764673446177911437735
50,1.32206385016345783519394691678529
51,1.32606086539385184124080466957363
52,1.32997994849561450962101242621213
53,1.33382408369699420540324747832083
54,1.33759608689675478299061431756286
55,1.34129861809840157042582631116554
56,1.34493419271652928951992551341519
57,1.34850519187592384049822091140873
58,1.35201387180925269356174222012997
59,1.35546237244642468248278420817822
60,1.35885272527767548764794764863070
61,1.36218686056287086845424089543538
62,1.36546661395121869984809851987782
63,1.36869373256833897877416814807525
64,1.37186988062132848637692357200936
65,1.37499664456692195182390119245535
66,1.37807553788300422456357096645925
67,1.38110800547946567050404712697864
68,1.38409542778063684678921560253248
69,1.38703912450822583912127011201428
70,1.38994035819075337731338925137859
71,1.39280033742288214102524694094235
72,1.39562021989573842525270322040507
73,1.39840111521727132873983001484695
74,1.40114408753987577992755337098727
75,1.40385015801087461395029327070788
76,1.40652030706000535743582739475372
77,1.40915547653675497944572507483070
78,1.41175657170922006871292455987097
79,1.41432446313512307734061712219469
80,1.41685998841467714548180704527780
81,1.41936395383414268004248277555132
82,1.42183713590815740989733319737671
83,1.42428028282823290631723163113985
84,1.42669411582418626559161655211945
85,1.42907933044471637465499742127446
86,1.43143659776281831513733625501031
87,1.43376656551127199045849803975046
88,1.43606985915301768285080297531251
89,1.43834708289084774503244577872518
90,1.44059882062050041452515319834423
91,1.44282563683092028655900008660849
92,1.44502807745516168396775806337400
93,1.44720667067514890742300163623199
94,1.44936192768326442061685584172388
95,1.45149434340351487097442675401736
96,1.45360439717482302436047680237703
97,1.45569255339880935013563199319433
98,1.45775926215425411862229789010732
99,1.45980495978027740085202499410883
100,1.46183006943012802004949212447556
101,1.46383500159734320015440184679111
102,1.46582015461591508196113741973575
103,1.46778591513599236384352379870481
104,1.46973265857653805932205909272750
105,1.47166074955627128997323919383517
106,1.47357054230413026793809209436686
107,1.47546238105041554033097676225414
108,1.47733660039969332829587950627194
109,1.47919352568647019992325020702098
110,1.48103347331458789611543629405502
111,1.48285675108122126729052106373029
112,1.48466365848631284518105571454556
113,1.48645448702822203819008915086399
114,1.48822952048631818101088138576966
115,1.48998903519120622071413875904352
116,1.49173330028322548985873180103399
117,1.49346257795983030417504496984463
118,1.49517712371242009126477808775245
119,1.49687718655315304304497286592170
120,1.49856300923225144242923560429887
121,1.50023482844626854749489834295990
122,1.50189287503776800325241579994432
123,1.50353737418683455820144722473619
124,1.50516854559481718304957021984687
125,1.50678660366067612270669613175206
126,1.50839175765029021537088773604817
127,1.50998421185906023463500440268682
128,1.51156416576812142335408335431223
129,1.51313181419446631477520263617702
130,1.51468734743526055456477660785913
131,1.51623095140661903325010821361041
132,1.51776280777709466139199127279682
133,1.51928309409612033822023724559020
134,1.52079198391763338850694172051151
135,1.52228964691909363410885497640549
136,1.52377624901610257908031339527613
137,1.52525195247281787931530761738947
138,1.52671691600834365568638378283593
139,1.52817129489927510374294232789656
140,1.52961524107856040706346324511367
141,1.53104890323083840386610740423952
142,1.53247242688440238321613298718006
143,1.53388595449993173699859090796027
144,1.53528962555612601418881986342682
145,1.53668357663237173619358113662050
146,1.53806794148856446328604880494902
147,1.53944285114220039919128570388868
148,1.54080843394285286284590517257086
149,1.54216481564413542828233863889917
150,1.54351211947325537350974714723534
151,1.54485046619825335264213684842887
152,1.54617997419301959043777131795943
153,1.54750075950017554893917501178166
154,1.54881293589190496545040860297231
155,1.55011661492881249783932227598952
156,1.55141190601688784352273766723539
157,1.55269891646264637873203579587398
158,1.55397775152651813615552962539061
159,1.5552485144745487937855697822580
160,1.5565113066284790125033503689923
161,1.5577662274142606185155566899847
162,1.5590133744090690917383222665005
163,1.5602528433868672134212890916912
164,1.5614847283625745096017887561291
165,1.5627091216348910906013910116209
166,1.5639261138278264021481962267081
167,1.5651357939309801204401545242984
168,1.5663382493386178800589701844921
169,1.5675335658875868968204535813531
170,1.5687218278941112286746963496805
171,1.5699031181895068691126972800727
172,1.5710775181548545397353985771798
173,1.5722451077546655843128372495097
174,1.5734059655695768078461175679510
175,1.5745601688281082455629926474646
176,1.5757077934375135681991643009787
177,1.5768489140137563841015717190329
178,1.5779836039106415925496195023079
179,1.5791119352481282332401160186499
180,1.5802339789398547783353415319588
181,1.5813498047198995156609192731336
182,1.5824594811688037184403440370733
183,1.5835630757388806508417023853167
184,1.5846606547788346508743326190253
185,1.5857522835577120987620707784543
186,1.5868380262882052394136417322042
187,1.5879179461493326594925608417451
188,1.5889921053085118554033401767670
189,1.5900605649430476232861377283707
190,1.5911233852610519220984047509449
191,1.5921806255218144323376978168260
192,1.5932323440556401926088372519739
193,1.5942785982831726178855149052898
194,1.5953194447342152402492075257052
195,1.5963549390660701044664993328351
196,1.5973851360814065103044640728242
197,1.5984100897456744769071880094478
198,1.5994298532040770912137117667745
199,1.6004444787981145742732966695783
200,1.6014540180817140056592986762630
201,1.6024585218369556824013643581279
202,1.6034580400894094885906204792407
203,1.6044526221230919303804147027104
204,1.6054423164950554512887497442475
205,1.6064271710496199931572675090968
206,1.6074072329322598215088614689368
207,1.6083825486031514859739979450195
208,1.6093531638503971372362042074234
209,1.6103191238029289433709811630663
210,1.6112804729431061012240470106968
211,1.6122372551190118018331787727466
212,1.6131895135564603770646178171404
213,1.6141372908707190054009564612255
214,1.6150806290779589526141584440749
215,1.6160195696064355535992442483611
216,1.6169541533074108898706966240935
217,1.6178844204658231218092809602181
218,1.6188104108107114481552575891959
219,1.6197321635253999657312316482113
220,1.6206497172574529375692451149913
221,1.6215631101283993717807573902126
222,1.6224723797432441085843244043850
223,1.6233775631997589763708235764260
224,1.6242786970975690761563473532379
225,1.6251758175470367510159433298275
226,1.6260689601779467784912918749885
227,1.6269581601480014288716268992987
228,1.6278434521511271996018825198987
229,1.6287248704256003780154455328086
230,1.6296024487619961186838158646540
231,1.6304762205109628247029340315097
232,1.6313462185908322418855336353753
233,1.6322124754950602514154623085859
234,1.6330750232995145070810817899110
235,1.6339338936696020882390456396937
236,1.6347891178672468673316553988041
237,1.6356407267577202121372878359786
238,1.6364887508163267538206974429640
239,1.6373332201349506564181830910122
240,1.6381741644284645412312220710626
241,1.6390116130410053475339532265536
242,1.6398455949521199856014182594703
243,1.6406761387827848128919159565871
244,1.6415032728013006216770174726554
245,1.6423270249290675112914781161575
246,1.6431474227462421636315751346988
247,1.6439644934972789037492699264795
248,1.6447782640963621261605236538133
249,1.6455887611327250554472852565906
250,1.6463960108758652253400079352702
251,1.6472000392806545757754235709120
252,1.6480008719923469659118101678755
253,1.6487985343514881747910607021825
254,1.6495930513987280459911550142806
255,1.6503844478795386557851076502687
256,1.6511727482488385896645406583853
257,1.6519579766755297180617521632354
258,1.6527401570469429154221885833793
259,1.6535193129731995255718286513621
260,1.6542954677914889591798912967940
261,1.6550686445702627364714142669306
262,1.6558388661133497000206475524099
263,1.6566061549639912476131298224926
264,1.6573705334088020354369325047334
265,1.6581320234816546762395516745383
266,1.6588906469674905995942797493635
267,1.6596464254060602869199055835742
268,1.6603993800955929143689683791328
269,1.6611495320963996728985487634563
270,1.6618969022344064890674389727010
271,1.6626415111046254299157118809395
272,1.6633833790745587708939609120691
273,1.6641225262875431693597855303336
274,1.6648589726660311520664555657863
275,1.6655927379148137916302128314875
276,1.6663238415241828497405978709604
277,1.6670523027730398705389227241558
278,1.6677781407319439782276582606554
279,1.6685013742661098814967770669060
280,1.6692220220383481777556367449494
281,1.6699401025119558461198480427698
282,1.6706556339535544255488325236407
283,1.6713686344358790907115387390359
284,1.6720791218405157822489486191588
285,1.6727871138605931988296171171099
286,1.6734926280034256758818467908453
287,1.6741956815931120104350784701710
288,1.6748962917730866339903462167541
289,1.6755944755086277816310273777671
290,1.6762902495893233900507489111813
291,1.6769836306314925655905969159274
292,1.6776746350805655073496557647246
293,1.6783632792134257912997348117721
294,1.6790495791407100524825443172865
295,1.6797335508090671525976027087336
296,1.6804152100033844187103393016133
297,1.6810945723489708849754724358514
298,1.6817716533137068543022828472123
299,1.6824464682101565829955341546205
300,1.6831190321976458391557686282417
301,1.6837893602843047464610994225495
302,1.6844574673290780064478221498582
303,1.6851233680436996726096164792885
304,1.6857870769946360540383728791839
305,1.6864486086049981773303641922910
306,1.6871079771564230701793940318392
307,1.6877651967909210488352860475834
308,1.6884202815126964880864683040712
309,1.6890732451899381632658668885844
310,1.6897241015565794996639017310929
311,1.6903728642140323244947625385183
312,1.6910195466328916347949880441279
313,1.6916641621546127742542570794728
314,1.6923067239931628235090370616511
315,1.6929472452366455238023736575190
316,1.6935857388489011099179153202735
317,1.6942222176710785912631703070676
318,1.6948566944231858326242234135402
319,1.6954891817056145764330361156507
320,1.6961196920006404080936205926497
321,1.6967482376739015835908871736387
322,1.6973748309758528341126097403345
323,1.6979994840431976620241678080327
324,1.6986222089002981056454652377047
325,1.6992430174605637351243650453612
326,1.6998619215278181169544615169283
327,1.7004789327976455682174800195679
328,1.7010940628587153900784050277180
329,1.7017073231940885557306761982634
330,1.7023187251825032848020076598471
331,1.7029282800996409431503328249999
332,1.7035359991193733296301674112630
333,1.7041418933149917287356986849929
334,1.7047459736604159134953934046804
335,1.7053482510313874139150295580438
336,1.7059487362066431093891539823563
337,1.7065474398690720177033809018016
338,1.7071443726068563398645064684914
339,1.7077395449145928256570942838468
340,1.7083329671944005516674733731537
341,1.7089246497570108257606210291935
342,1.7095146028228417155785662240820
343,1.7101028365230568392706624642165
344,1.7106893609006084126008758306039
345,1.7112741859112663722078177423358
346,1.7118573214246310502638368060776
347,1.7124387772251329663557395132525
348,1.7130185630130165487814676005740
349,1.7135966884053113306655538388220
350,1.7141731629367881637306975552585
351,1.7147479960609025378260637223672
352,1.7153211971507246890921445268525
353,1.7158927754998557816612189799063
354,1.7164627403233315779073026126464
355,1.7170311007585139630704783169681
356,1.7175978658659685346058484335443
357,1.7181630446303314958687171928328
358,1.7187266459611650987236391827898
359,1.7192886786937973808184065841286
360,1.7198491515901551360534596420763
361,1.7204080733395818637418439905012
362,1.7209654525596471786995974108474
363,1.7215212977969422785326950218719
364,1.7220756175278664927802720332833
365,1.7226284201594031509662827949617
366,1.7231797140298836479210116538940
367,1.7237295074097425990974649557323
368,1.7242778085022608753368857031734
369,1.7248246254443011503729347038002
370,1.7253699663070316750069331379099
371,1.7259138390966411320382070591193
372,1.7264562517550435292236586361802
373,1.7269972121605730977860296981115
374,1.7275367281286735057846024414298
375,1.7280748074125720787541366672423
376,1.7286114577039504846978874495200
377,1.7291466866336036735240135033083
378,1.7296805017720902392382693513614
379,1.7302129106303760456145794614980
380,1.7307439206604678730506680537959
381,1.7312735392560399630041397671822
382,1.7318017737530505791628911824794
383,1.7323286314303532610147223688522
384,1.7328541195102977345430645895516
385,1.7333782451593241023522979895107
386,1.7339010154885509729448650253445
387,1.7344224375543532795841629099609
388,1.7349425183589337266586074621373
389,1.7354612648508885393748281586956
390,1.7359786839257647070555555143585
391,1.7364947824266090381744185640225
392,1.7370095671445126367251174660010
393,1.7375230448191482746626721425888
394,1.7380352221392992427804255538297
395,1.7385461057433825382079230187282
396,1.7390557022199660407262811272890
397,1.7395640181082793091733805626790
398,1.7400710598987180074693801698437
399,1.7405768340333405274799552030604
400,1.7410813469063611101348421774595
401,1.7415846048646355152157789829478
402,1.7420866142081399865589590606785
403,1.7425873811904463349729150625624
404,1.7430869120191910335651958886021
405,1.7435852128565357925604278784132
406,1.7440822898196257243197183470188
407,1.7445781489810422169972419053168
408,1.7450727963692480217857997425546
409,1.7455662379690274166250492074675
410,1.7460584797219239626950005329017
411,1.7465495275266701155922210279547
412,1.7470393872396122757123427660829
413,1.7475280646751323588730513564785
414,1.7480155656060623130486121567572
415,1.7485018957640958672486676206185
416,1.7489870608401939442983588000104
417,1.7494710664849865881831100261153
418,1.7499539183091685714186945757967
419,1.7504356218838929632433786434659
420,1.7509161827411576428901943854456
421,1.7513956063741887125195233032014
422,1.7518738982378200938678281624277
423,1.7523510637488671472687039529528
424,1.7528271082864979293488315412284
425,1.7533020371925984713995610552778
426,1.7537758557721356879695092934685
427,1.7542485692935154030858628114939
428,1.7547201829889355106352879894352
429,1.7551907020547381842057768180492
430,1.7556601316517540014843939757043
431,1.7561284769056454899320492114399
432,1.7565957429072472463883401146206
433,1.7570619347128979717270918339796
434,1.7575270573447755218035243134639
435,1.7579911157912228017544620317021
436,1.7584541150070724081200882235440
437,1.7589160599139681837190495115065
438,1.7593769554006826709994770231603
439,1.7598368063234311489239315887145
440,1.7602956175061833284478408281256
441,1.7607533937409698703959111051363
442,1.7612101397881872934398593682942
443,1.7616658603769009240255996559647
444,1.7621205602051405118983004098509
445,1.7625742439401978462624292882204
446,1.7630269162189174014264807285618
447,1.7634785816479871857193238684003
448,1.7639292448042230166262343834390
449,1.7643789102348540675125952425927
450,1.7648275824578018433842806972231
451,1.7652752659619600939117618983325
452,1.7657219652074685103428729367426
453,1.7661676846259859547948234591790
454,1.7666124286209596164454336616260
455,1.7670562015678937242092093547513
456,1.7674990078146131187837938308591
457,1.7679408516815263858051087155510
458,1.7683817374618849522222091781430
459,1.7688216694220406661927730810373
460,1.7692606518017015094020425580292
461,1.7696986888141832982721056787789
462,1.7701357846466605940431851838853
463,1.7705719434604154326279980492443
464,1.7710071693910820424680024746482
465,1.7714414665488915266745910539329
466,1.7718748390189136478966082058542
467,1.7723072908612950044104316874743
468,1.7727388261114986212764202872262
469,1.7731694487805374417025225225327
470,1.7735991628552092518356658293949
471,1.7740279722983273150333625940718
472,1.7744558810489510224238727319810
473,1.7748828930226119201225448959078
474,1.7753090121115426268527209932948
475,1.7757342421848975747536313814081
476,1.7761585870889780975185660475892
477,1.7765820506474522094962609595525
478,1.7770046366615737627012121563184
479,1.7774263489103998824011704592050
480,1.7778471911510070874896811180561
481,1.7782671671187046584930185163936
482,1.7786862805272488343334232936858
483,1.7791045350690532305662860123947
484,1.7795219344153983119400834481524
485,1.7799384822166414096650784511234
486,1.7803541821024218820971538009770
487,1.7807690376818682819764378385444
488,1.7811830525438021414936488697669
489,1.7815962302569416185447626673700
490,1.7820085743701028829502243156791
491,1.7824200884124013930644780280184
492,1.7828307758934516676221705644281
493,1.7832406403035655450095436499707
494,1.7836496851139500417367651511848
495,1.7840579137769030209042755222621
496,1.7844653297260099339750135979643
497,1.7848719363763373408676140192359
498,1.7852777371246271737594973187479
499,1.7856827353494892627039021891714
500,1.786086934411594274990022874322
501,1.786490337653862836443462469006
502,1.786892948401658312701983337348
503,1.787294769962974742231338217221
504,1.787695805628627789335001432268
505,1.788096058672441589842673326564
506,1.788495532351437245653672655686
507,1.788894229906020843107685446510
508,1.789292154560170663013050613615
509,1.789689309521621842035050406818
510,1.790085697982054568479030279037
511,1.790481323117279074366695926544
512,1.790876188087421355881991179934
513,1.791270296037108270921189402058
514,1.791663650095652724347991792511
515,1.792056253377239350586189404571
516,1.792448108981108940522861632689
517,1.792839219991742725382047680791
518,1.793229589479048342229800081141
519,1.793619220498544303715423722633
520,1.794008116091545871170911420421
521,1.794396279285349169945757127928
522,1.794783713093417868372972506542
523,1.795170420515568904379337489430
