Eigenstate,Potential Energy
1,0.500000000036375339640078705767313304
2,0.64623093788855384114533602958959233
3,0.73633761040243385178013042616170728
4,0.79966527926696381660647562694463499
5,0.8480465778021011109616627141689163
6,0.8870660007641827969968409992925116
7,0.9197208295921631278970475024963155
8,0.9477838506634059746727987282266432
9,0.9723835629844384067606060147390524
10,0.9942802207039930274869904651641367
11,1.0140093939632215893088543246262250
12,1.0319621780668391102926571695257381
13,1.0484327030807224692053910304005127
14,1.0636476666880758451274543029305255
15,1.0777854500036179616561466028160476
16,1.090988922444028700920875958394586
17,1.103374275189454545799797366573353
18,1.115037272189708872507273047446090
19,1.126057773268250207084317639225638
20,1.136503071756119164121342730070859
21,1.146430400573636011937645357598607
22,1.155888843389141108877436716521134
23,1.164920812555519797554436395889904
24,1.173563206510624754151169674890861
25,1.181848326573202532796326748233111
26,1.189804610750481440235237196566594
27,1.197457226700747473156676511632530
28,1.204828555092384240262154415454715
29,1.211938586805824968848323689482656
30,1.218805251775377125798265875430000
31,1.225444693121941682384446447493971
32,1.231871497149749467263904312923384
33,1.238098887470589247705362798842540
34,1.244138889768455912785948949418682
35,1.250002472378352066498721474236943
36,1.255699666819497460101048671890678
37,1.261239671619116144479334356947225
38,1.266630942132552480141470293303917
39,1.271881268567618492916725921976342
40,1.276997844025254279889707491417707
41,1.281987324051832896369771580966187
42,1.286855878943448553190158780037936
43,1.291609239836040608714625479848205
44,1.296252739447111824426181051355176
45,1.300791348197229783977242655716001
46,1.305229706326364092989210730256041
47,1.309572152526635364560344153679964
48,1.313822749535465631195116785344579
49,1.317985307068457279973965113526415
50,1.32206340241720489413117500967116
51,1.32606039899177742173805391580831
52,1.32997946304926287789073187656594
53,1.33382357881731766825736868522510
54,1.33759556219410149038467978148752
55,1.34129807318250327665290576769909
56,1.34493362719648907264415396044574
57,1.34850460536020377957081300096865
58,1.35201326390566150312063883161694
59,1.35546174276210530380041911225793
60,1.35885207341909263615857215302748
61,1.36218618613579853676283202687880
62,1.36546591656072761569621884695231
63,1.36869301181878401731420264811963
64,1.37186913611633603608423620485242
65,1.37499587590937723335630774944924
66,1.37807474467503856185927347431690
67,1.38110718732244371339212315857340
68,1.38409458427514374437096537219155
69,1.38703825525405436316587832533913
70,1.38993946278689099489777328476967
71,1.39279941546749803563456736089063
72,1.39561927098617046554596926845615
73,1.39840013895001298417298112468930
74,1.40114308351056298241531728767096
75,1.40384912581427256473708550171512
76,1.40651924628999527833574472653768
77,1.40915438678632080760133455179700
78,1.41175545257043509401275456381641
79,1.41432331419913652162561399085950
80,1.41685880927170068266169510443434
81,1.41936274407343689623352023010976
82,1.42183589511801820268391349369762
83,1.42427901059597782223079521613487
84,1.42669281173614077489129029904466
85,1.42907799408620008248554477718794
86,1.43143522871813110813124528329440
87,1.43376516336368011784005913280274
88,1.43606842348473977109136254993893
89,1.43834561328304074509718906777166
90,1.44059731665324548074300630031669
91,1.44282409808320858613825673504272
92,1.44502650350488013617137220086470
93,1.44720506109906585140842099581030
94,1.44936028205701521093637421108641
95,1.45149266130158739972297509957652
96,1.45360267817054316894871601577931
97,1.45569079706432634565694228949941
98,1.45775746806052585377315550561856
99,1.45980312749705563635574672699098
100,1.46182819852594352852403919425287
101,1.46383309163949082635525106469650
102,1.46581820517043872232076522757034
103,1.46778392576766986421925117308438
104,1.46973062884886602985387393901970
105,1.47165867903144983594372008847871
106,1.47356843054304763551603663525509
107,1.47546022761263267607040182854032
108,1.47733440484342835125152029934690
109,1.47919128756858278523328844093690
110,1.48103119219056356889158393810484
111,1.48285442650515560564482030171389
112,1.48466129001089559120779321593255
113,1.48645207420472111571025952358395
114,1.48822706286456361887540654294924
115,1.48998653231957398045075369978820
116,1.49173075170862119643585094053355
117,1.49345998322767287864432962765283
118,1.49517448236662528403238619758294
119,1.49687449813611686650937746610522
120,1.49856027328483350171135082172751
121,1.50023204450777526797400891430957
122,1.50189004264593575360890819087343
123,1.50353449287781266765465531076148
124,1.50516561490315085146621752813282
125,1.50678362311928922224238943001475
126,1.50838872679046798229392027960822
127,1.50998113021043184996835995195080
128,1.51156103285864248095787602288855
129,1.51312862955040117547814065441223
130,1.51468411058116458493915260385359
131,1.51622766186532072761074081659745
132,1.51775946506967764558498382298086
133,1.51927969774190525375326931532384
134,1.52078853343415965555751240977279
135,1.52228614182210109193221134851099
136,1.52377268881951300232359892304150
137,1.52524833668871636872894390671862
138,1.52671324414695990170803474027005
139,1.52816756646896452141363193706510
140,1.52961145558578514071921213148485
141,1.53104506018014820003239758132076
142,1.53246852577841533011555534144057
143,1.53388199483931486906556442616392
144,1.53528560683957577996794354019077
145,1.53667949835659432798130726731950
146,1.53806380314825600685740328717846
147,1.53943865223002700193577791829768
148,1.54080417394943051861888651101170
149,1.54216049405800977725933384078003
150,1.54350773578088131531341365868112
151,1.54484601988397451099181356266178
152,1.54617546473904762755324981488924
153,1.54749618638656932791054618902043
154,1.54880829859654955876632554851005
155,1.55011191292739804024606272670869
156,1.55140713878288822736604225975803
157,1.55269408346729778991359826157589
158,1.55397285223879742881484626225851
159,1.5552435483611517017969234550778
160,1.5565062731537981958561482598911
161,1.5577611260403635426247326880137
162,1.5590082045956757377091420173312
163,1.5602476045913276172710503315026
164,1.5614794200398461284177129862366
165,1.5627037432375159935911308609297
166,1.5639206648059082845163332474256
167,1.5651302737321611380001318482504
168,1.5663326574080553024656322408292
169,1.5675279016679295772847098052518
170,1.5687160908254758879962151816306
171,1.5698973077094541918421804948623
172,1.5710716336983650802520267772952
173,1.5722391487541154805770807594664
174,1.5733999314547133005614328282984
175,1.5745540590260250004538172985283
176,1.5757016073726257990852015979620
177,1.5768426511077757744212966029090
178,1.5779772635825510129581037040787
179,1.5791055169141562528780082795015
180,1.5802274820134499673372382770144
181,1.5813432286117045364425556307974
182,1.5824528252866292032743245309064
183,1.5835563394876788632017292828914
184,1.5846538375606729279978095431457
185,1.5857453847717460728494005863047
186,1.5868310453306518348527599082966
187,1.5879108824134428634640207071306
188,1.5889849581845432591900816872352
189,1.5900533338182367315791512372709
190,1.5911160695195862275566798842723
191,1.5921732245448042526264781996439
192,1.5932248572210902671071388877500
193,1.5942710249659534612183870074265
194,1.5953117843060342497660113593931
195,1.5963471908954424187495204688267
196,1.5973772995336256157574456598531
197,1.5984021641827825594358121400061
198,1.5994218379848351299729671462609
199,1.6004363732779721744187100475433
200,1.6014458216127789670008879065456
201,1.6024502337679633008203874973117
202,1.6034496597656915870386110373202
203,1.6044441488865456162412784979806
204,1.6054337496841115968428847417991
205,1.6064185099992114358458311766847
206,1.6073984769737892806539794151154
207,1.6083736970644591925682401223536
208,1.6093442160557281733714937397933
209,1.6103100790729002878328280078204
210,1.6112713305946733777327629310971
211,1.6122280144654357263683314008679
212,1.6131801739072729006626671089512
213,1.6141278515316891487699026444135
214,1.6150710893510583288611982175823
215,1.6160099287898035753195258032034
216,1.6169444106953196567963376662202
217,1.6178745753486419851681890124948
218,1.6188004624748712478390564974504
219,1.6197221112533569363199893505470
220,1.6206395603276522792094912330387
221,1.6215528478152384818600708447490
222,1.6224620113170354700918038076959
223,1.6233670879266926987796725111542
224,1.6242681142396750846080125354040
225,1.6251651263621466195301776992931
226,1.6260581599196552028690868538498
227,1.6269472500656273349005713389367
228,1.6278324314896744821139437038211
229,1.6287137384257182662881324345607
230,1.6295912046599391636151055141685
231,1.6304648635385505031279821641912
232,1.6313347479754081733418829354838
233,1.6322008904594510225987268008641
234,1.6330633230619880991689222586592
235,1.6339220774438259021966175404444
236,1.6347771848622453422434373836419
237,1.6356286761778320315439701796035
238,1.6364765818611616349703369729941
239,1.6373209319993457172712338985127
240,1.6381617563024402399881729766671
241,1.6389990841097209893818339403260
242,1.6398329443958287913031795738136
243,1.6406633657767885437668068453412
244,1.6414903765159037554458840553569
245,1.6423140045295309631832816536705
246,1.6431342773927365470695323341679
247,1.6439512223448373248560115165630
248,1.6447648662948325062405869949399
249,1.6455752358267219755236793132257
250,1.6463823572047212867384447821916
251,1.6471862563783712706644552443064
252,1.6479869589875450516224535193637
253,1.6487844903673575456509945671215
254,1.6495788755529770963198397401496
255,1.6503701392843431276071468910935
256,1.6511583060107898986048900046983
257,1.6519433998955827507948257345905
258,1.6527254448203632919511933468888
259,1.6535044643895103195188655123952
260,1.6542804819344168691688263697678
261,1.6550535205176837015863830599832
262,1.6558236029372339522216135013640
263,1.6565907517303477938871182988053
264,1.6573549891776225623588515869864
265,1.6581163373068568695102358255616
266,1.6588748178968608710149075728920
267,1.6596304524811959011528211206037
268,1.6603832623518435077217247699902
269,1.6611332685628081562555731755391
270,1.6618804919336493269773697193115
271,1.6626249530529522877253922387662
272,1.6633666722817315216996663486346
273,1.6641056697567742524258558207513
274,1.6648419653939212742364424135106
275,1.6655755788912889631315047143698
276,1.6663065297324307456537507742026
277,1.6670348371894455090742410764774
278,1.6677605203260247068187527526362
279,1.6684835980004496615858923568194
280,1.6692040888685311590092298094445
281,1.6699220113864992206727862926987
282,1.6706373838138405527347379160530
283,1.6713502242160868825923069919178
284,1.6720605504675513401093335034323
285,1.6727683802540196906544125189183
286,1.6734737310753924446807118487041
287,1.6741766202482829031258971453798
288,1.6748770649085675403951151148602
289,1.6755750820138933729775280498672
290,1.6762706883461430462111932518771
291,1.6769639005138554801232120829051
292,1.6776547349546049592390874203727
293,1.6783432079373425721226341400051
294,1.6790293355646950375487148122056
295,1.6797131337752230044402379158447
296,1.6803946183456464111174841663626
297,1.6810738048930268355714848468824
298,1.6817507088769161535002984201780
299,1.6824253456014683069510501543075
300,1.6830977302175159341584872504437
301,1.6837678777246122720028927254597
302,1.6844358029730404240051683113016
303,1.6851015206657871669732322443190
304,1.6857650453604848738140822030223
305,1.6864263914713229810238495244915
306,1.6870855732709282640601952619565
307,1.6877426048922111025568131465777
308,1.6883975003301852138131865385575
309,1.6890502734437569438314828045417
310,1.6897009379574844510519870294809
311,1.6903495074633103776962921885782
312,1.6909959954222655218564566797604
313,1.6916404151661449030847863525375
314,1.6922827798991580257642444938163
315,1.6929231026995526599086391913210
316,1.6935613965212135150411220530736
317,1.6941976741952333457623438787099
318,1.6948319484314618402599407081733
319,1.6954642318200294333280658634830
320,1.6960945368328460451620884490287
321,1.6967228758250786648698243065793
322,1.6973492610366038931373703504359
323,1.6979737045934389580957397918834
324,1.6985962185091501815356031559391
325,1.6992168146862406574582009329270
326,1.6998355049175153801970090740594
327,1.7004523008874266428729201390467
328,1.7010672141733968953856914320679
329,1.7016802562471240368080708507341
330,1.7022914384758655738566573597058
331,1.7029007721237030840238786921256
332,1.7035082683527880446035332244182
333,1.7041139382245694061555487109657
334,1.7047177927010010944245622214126
335,1.7053198426457337556350701102582
336,1.7059200988252868032061804581997
337,1.7065185719102036381225698487790
338,1.7071152724761911018051443643201
339,1.7077102110052392259788995997079
340,1.7083033978867273708703930327941
341,1.7088948434185124653037389022403
342,1.7094845578080018458360970500726
343,1.7100725511732103327133958840783
344,1.7106588335438015363457560931529
345,1.7112434148621152136286444055060
346,1.7118263049841781488968410268282
347,1.7124075136807021248623432036374
348,1.7129870506380657952530986244822
349,1.7135649254592840040689890796083
350,1.7141411476649620937900124144594
351,1.7147157266942372901327378386974
352,1.7152886719057068457139591248418
353,1.7158599925783422269941328765409
354,1.7164296979123907589709255841621
355,1.7169977970302650929013745422389
356,1.7175642989774187068364315011463
357,1.7181292127232106780082872368304
358,1.7186925471617589710730491077047
359,1.7192543111127779873504259669366
360,1.7198145133224093129824527031030
361,1.7203731624640374108831916505525
362,1.7209302671390967380839683199095
363,1.7214858358778648840910727013736
364,1.7220398771402467542550775396022
365,1.7225923993165480345240563432245
366,1.7231434107282368152565492579458
367,1.7236929196286962661106958322269
368,1.7242409342039651507459177809071
369,1.7247874625734708138899452580595
370,1.7253325127907503539543786544370
371,1.7258760928441628345168627044883
372,1.7264182106575914911575579062544
373,1.7269588740911359003755189798915
374,1.7274980909417984190738016896677
375,1.7280358689441555861939230181260
376,1.7285722157710259427249807368427
377,1.7291071390341260593105195620852
378,1.7296406462847179388738062790515
379,1.7301727450142496340764044768294
380,1.7307034426549858363858423115822
381,1.7312327465806313122005767953600
382,1.7317606641069443042142626751533
383,1.7322872024923445726936318989156
384,1.7328123689385110403832540611478
385,1.7333361705909726623055687881774
386,1.7338586145396931791200914647041
387,1.7343797078196455033923576417604
388,1.7348994574113796755818941860114
389,1.7354178702415850644476775483298
390,1.7359349531836440009878240544620
391,1.7364507130581771628661488488561
392,1.7369651566335843177128048180878
393,1.7374782906265778987969654177019
394,1.7379901217027079941790421252489
395,1.7385006564768816062257408884256
396,1.7390099015138758323666738190035
397,1.7395178633288445970116211053444
398,1.7400245483878189427735490394703
399,1.7405299631081994468003517002898
400,1.7410341138592450621842903879484
401,1.7415370069625544333806717659081
402,1.7420386486925404308644801147492
403,1.7425390452769007257768116865250
404,1.7430382028970822976639186095638
405,1.7435361276887373407666418448404
406,1.7440328257421766779087226410571
407,1.7445283031028177987172143034454
408,1.7450225657716250253836763343532
409,1.7455156197055446670568930394458
410,1.7460074708179376773613573630219
411,1.7464981249790040750739677086076
412,1.7469875880162027105641796234123
413,1.7474758657146674570736357664620
414,1.7479629638176162506969803001559
415,1.7484488880267572630441467431250
416,1.7489336440026886362341083786689
417,1.7494172373652946287249740069598
418,1.7498996736941353352362730215697
419,1.7503809585288342592930374328091
420,1.7508610973694587203340866579314
421,1.7513400956768970475881489112284
422,1.7518179588732318423409741073492
423,1.7522946923421071447545989136675
424,1.7527703014290931189851581563888
425,1.7532447914420446359808911380117
426,1.7537181676514573608228795751540
427,1.7541904352908188292610892215522
428,1.7546615995569545271560002026786
429,1.7551316656103728852370281173709
430,1.7556006385756020513066091872458
431,1.7560685235415259435682402762926
432,1.7565353255617167346167789119438
433,1.7570010496547591040126291099300
434,1.7574657008045773574012256415247
435,1.7579292839607532358772741166830
436,1.7583918040388423166095449226954
437,1.7588532659206871661212144980484
438,1.7593136744547262283157756038879
439,1.7597730344562991285795230905825
440,1.7602313507079494652002901771494
441,1.7606886279597222479823314955020
442,1.7611448709294595477312265683385
443,1.7616000843030940043305957019622
444,1.7620542727349348128113068021931
445,1.7625074408479555180995099989569
446,1.7629595932340746428208912254370
447,1.7634107344544363173594186519592
448,1.7638608690396841304023789034396
449,1.7643100014902360405049767632673
450,1.7647581362765525011462696390021
451,1.7652052778394053024033497188348
452,1.7656514305901399706211433220455
453,1.7660965989109374691830517299940
454,1.7665407871550715893639569016573
455,1.7669839996471656551691418201597
456,1.7674262406834438391946634863127
457,1.7678675145319817852477178467463
458,1.7683078254329529336597257548085
459,1.7687471775988730632524364107000
460,1.7691855752148426923362706575890
461,1.7696230224387851885014735780444
462,1.7700595234016838002917584751925
463,1.7704950822078162145682773855073
464,1.7709297029349848005097406965643
465,1.7713633896347465090238816763261
466,1.7717961463326395583082268630726
467,1.7722279770284061861165043608039
468,1.7726588856962164844162071263459
469,1.7730888762848857931761437088191
470,1.7735179527180931778676129291498
471,1.7739461188945952578341470305807
472,1.7743733786884396831847447801267
473,1.7747997359491736111615934383701
474,1.7752251945020546860226891425685
475,1.7756497581482534452436056950022
476,1.7760734306650596658935704031989
477,1.7764962158060829842314499372021
478,1.7769181173014524645639990500356
479,1.7773391388580140067993222924705
480,1.7777592841595259873321849819033
481,1.7781785568668516841889747736001
482,1.7785969606181520552740003058411
483,1.7790144990290742497697787575766
484,1.7794311756929386725024333795104
485,1.7798469941809260782059133090330
486,1.7802619580422592805348868477894
487,1.7806760708043863246698239722459
488,1.7810893359731597200576519640884
489,1.7815017570330149614510655052604
490,1.7819133374471462013503443586399
491,1.7823240806576812081118484702379
492,1.7827339900858541978891873465881
493,1.7831430691321765153961374062251
494,1.7835513211766062575095903708283
495,1.7839587495787150321877073214829
496,1.7843653576778550971037178078303
497,1.7847711487933225634926426637741
498,1.7851761262245206104438592685671
499,1.7855802932511202069378958126833
500,1.785983653133220472076211683922
501,1.786386209111504419492283493317
502,1.786787964407397541072919654647
503,1.787188922223220698062020504138
504,1.787589085742345163331185657801
505,1.787988458129342662225306713969
506,1.788387042530136142013857171475
507,1.788784842072149117916446156856
508,1.789181859864453235601910257239
509,1.789578098997912280990035451176
510,1.789973562545328690529317250337
511,1.790368253561585792968192315259
512,1.790762175083789682751995515766
513,1.791155330131409340724475862711
514,1.791547721706415678541857105421
515,1.791939352793419881041364811360
516,1.792330226359809256905269730061
517,1.792720345355881672363473873546
518,1.793109712714980353326889637140
519,1.793498331353625837910693104923
520,1.793886204171647936363027575207
521,1.794273334052314493649674935256
522,1.794659723862461230915549615812
523,1.795045376452619103008864020869
