Eigenstate,Potential Energy
1,0.500000000027529380582158064500816896
2,0.64623093783081198933451861554265068
3,0.73633761023282163409437641720802934
4,0.79966527891368039998961214074805752
5,0.8480465771901407594823907395979886
6,0.8870659998172263385186838495131632
7,0.9197208282332748733491987782498382
8,0.9477838488153243642030149585521719
9,0.9723835605697111623227893144594525
10,0.9942802176450457504561843146491110
11,1.0140093901823950270149656844161758
12,1.0319621734864104566710779476196264
13,1.0484326976229179735207898668407501
14,1.0636476602750784184382899252031820
15,1.0777854425575717654665185671418295
16,1.090988913887041840142970777834638
17,1.103374265443600528542042901836883
18,1.115037261177027242808330914893351
19,1.126057760910746607865453305661973
20,1.136503057975764998131785439792161
21,1.146430385292367812955373433374807
22,1.155888826528859700027848373625536
23,1.164920794038089290466794041903078
24,1.173563186257871427200746634898692
25,1.181848304506913616124545258702098
26,1.189804586792403827904633473617002
27,1.197457200772586377613391057965683
28,1.204828527115801800558005803285364
29,1.211938556702438821366138383430612
30,1.218805219466758944226696704565180
31,1.225444658529615692197487728505253
32,1.231871460195190938834792233309048
33,1.238098848075222971326033734492975
34,1.244138847853654658202000478456452
35,1.250002427865435029055898926066318
36,1.255699619629728695196469504277175
37,1.261239621673702991692378059034188
38,1.266630889352643978165911719530721
39,1.271881212874303786212606414474034
40,1.276997785339561017809508356240629
41,1.281987262294725625380379579161713
42,1.286855814035827102703357352790596
43,1.291609171698738470949514128200947
44,1.296252668000894528653139420095889
45,1.300791273362793265431789675599996
46,1.305229628024333056692991418368791
47,1.309572070677561644243643187015466
48,1.313822664059826543479212616304120
49,1.317985217886653973941140673426224
50,1.32206330944956069638430586310149
51,1.32606030215853617702959324342484
52,1.32997936227058728538202493614279
53,1.33382347401328761345299627857830
54,1.33759545328471237277251874840331
55,1.34129796008766433306848649117748
56,1.34493350983602169636736888165175
57,1.34850448365383983515388732386367
58,1.35201313777304163693820852958142
59,1.35546161212277725030558886596518
60,1.35885193819250951982259677967267
61,1.36218604624131716967062555425528
62,1.36546577191760679076502352390046
63,1.36869286234618279709846049469638
64,1.37186898173331203712587408978513
65,1.37499571653488490603619735052480
66,1.37807458022792746570253397728946
67,1.38110701772145678777717204215538
68,1.38409440943891557458969520292387
69,1.38703807510110944178003929154735
70,1.38993927723564197833460753750299
71,1.39279922443624399596278151712142
72,1.39561907439309513737144735262545
73,1.39839993671318300659198370669520
74,1.40114287554792613596147186062143
75,1.40384891204365600325705403850106
76,1.40651902662910375572721617518267
77,1.40915416115273489934576793181246
78,1.41175522088160941343417200750196
79,1.41432307637239793080569002633704
80,1.41685856522424649794040148568761
81,1.41936249372233308822360679699942
82,1.42183563838019759072662654311396
83,1.42427874738823826321935076043968
84,1.42669254197514334638781592727380
85,1.42907771768846726005636810311520
86,1.43143494560004493682468687741966
87,1.43376487344148037773008385823571
88,1.43606812667452213680976269741357
89,1.43834530950075493927625008447803
90,1.44059700581469342128991958839726
91,1.44282378010404252726185221962235
92,1.44502617830060080308110889918037
93,1.44720472858502056860489746343033
94,1.44935994214839602401198005604800
95,1.45149231391342919059067642791401
96,1.45360232321772176441634117248543
97,1.45569043446155661926366704984830
98,1.45775709772235982080434999988628
99,1.45980274933788054195162823437744
100,1.46182781245997992879704199245626
101,1.46383269758079066243035150176086
102,1.46581780303288338721242609110966
103,1.46778351546496826245801844863127
104,1.46973021029455262977503369873546
105,1.47165825213888271454982552276551
106,1.47356799522540651582449797509655
107,1.47545978378291695685668893499621
108,1.47733395241445512909794357113651
109,1.47919082645298486879265476397315
110,1.48103072230078748527443041851500
111,1.48285394775345959883827526423041
112,1.48466080230934761243348208023817
113,1.48645157746519680562804213751567
114,1.48822655699874428153906095751795
115,1.48998601723894454892110486722439
116,1.49173022732446818995614680406921
117,1.49345944945108235128204142048022
118,1.49517393910848076469091707742538
119,1.49687394530709729021249859150402
120,1.49855971079541113206249817259948
121,1.50023147226821361069189510541088
122,1.50188946056628746104019963519686
123,1.50353390086791743416376815996740
124,1.50516501287263329960158628221028
125,1.50678301097755677957786277875087
126,1.50838810444670874884315600203901
127,1.50998049757361245606942462935124
128,1.51156038983750593552447709862987
129,1.51312797605346470451318945246305
130,1.51468344651671746020560825000328
131,1.51622698714142208535395450488073
132,1.51775877959415429519986509117006
133,1.51927900142234947628900845047584
134,1.52078782617792699195165757029955
135,1.52228542353630812086514024351526
136,1.52377195941103510758367267655589
137,1.52524759606418549597773211773007
138,1.52671249221276230453426915760455
139,1.52816680313123849656364872157885
140,1.52961068075041875239079989174539
141,1.53104427375277699311817823942219
142,1.53246772766442003228110427903769
143,1.53388118494381908154660554651772
144,1.53528478506744365697013824903680
145,1.53667866461242824456522448627871
146,1.53806295733639421519030055191247
147,1.53943779425454127579102475417441
148,1.54080330371412378600288615590351
149,1.54215961146641374104479243577087
150,1.54350684073625406175707481189240
151,1.54484511228929810601354584246996
152,1.54617454449702570065263153996756
153,1.54749525339962464359600023978714
154,1.54880735276682157537094758223442
155,1.55011095415674045600320660203547
156,1.55140616697286651361677661015959
157,1.55269309851918671131711545416384
158,1.55397185405357855043184098649643
159,1.5552425368395108829149756939223
160,1.5565052481961230704250216703384
161,1.5577600875467409861684771184279
162,1.5590071524658893205807756500967
163,1.5602465387248550441145535509448
164,1.5614783403358566637009120951764
165,1.5627026495948678730719048222418
166,1.5639195571231461125035487011189
167,1.5651291519075132702694740325684
168,1.5663315213394312146893716375086
169,1.5675267512529172188332936334248
170,1.5687149259613390209683307693450
171,1.5698961282931297151788092645630
172,1.5710704396264603387887379460025
173,1.5722379399229055588876587725599
174,1.5733987077601383014445888022940
175,1.5745528203636873079135814270001
176,1.5757003536377873256542391905802
177,1.5768413821953551926752012699890
178,1.5779759793871209710673107796215
179,1.5791042173299405740428004419657
180,1.5802261669343208329497985633684
181,1.5813418979311796528188522965492
182,1.5824514788978689517971930242175
183,1.5835549772834834337151047740180
184,1.5846524594334794352906890377334
185,1.5857439906136256560667640761410
186,1.5868296350333067396691773629006
187,1.5879094558682035068542673242980
188,1.5889835152823652766296691865708
189,1.5900518744496980065061012775910
190,1.5911145935748839029245191646391
191,1.5921717319137517243767768791023
192,1.5932233477931141593885160255580
193,1.5942694986300905831772938302161
194,1.5953102409509285337330501507456
195,1.5963456304093418396435045720280
196,1.5973757218043790915278143970867
197,1.5984005690978368323623319877491
198,1.5994202254312316286401232683384
199,1.6004347431423438561804388238368
200,1.6014441737813471407496473163789
201,1.6024485681265344298730409487074
202,1.6034479761996540719495480642667
203,1.6044424472808665573518030400536
204,1.6054320299233335363739407684341
205,1.6064167719674490793395089700811
206,1.6073967205547261975672960914907
207,1.6083719221413444958210259402272
208,1.6093424225113731776482803712014
209,1.6103082667896751464368671498867
210,1.6112694994545036977882976814938
211,1.6122261643497991621654862298247
212,1.6131783046971957249373922875850
213,1.6141259631077428017092628919644
214,1.6150691815933559446226626445407
215,1.6160080015779964858506434060486
216,1.6169424639085938727392783638808
217,1.6178726088657146536316565968161
218,1.6187984761739870868178982220726
219,1.6197201050122846455408666482098
220,1.6206375340236809271787817927645
221,1.6215508013251738688880292274201
222,1.6224599445171964670650109626954
223,1.6233650006929075614513664699334
224,1.6242660064472777431739387770866
225,1.6251629978859729432551299109208
226,1.6260560106340392395272985911554
227,1.6269450798443975247906237221885
228,1.6278302402061498464066187257000
229,1.6287115259527045694633985648631
230,1.6295889708697250497418092966191
231,1.6304626083029036057377165316121
232,1.6313324711655711986458322525601
233,1.6321985919461378057940384034521
234,1.6330610027153796335785379912963
235,1.6339197351335663409840095619612
236,1.6347748204574379724410966937782
237,1.6356262895470352201322120124937
238,1.6364741728723847467399616967278
239,1.6373185005200450042013770863520
240,1.6381593021995147018675370090319
241,1.6389966072495082053992267710866
242,1.6398304446441007223304097385161
243,1.6406608429987473050541170447610
244,1.6414878305761773594475446658777
245,1.6423114352921690322279037925963
246,1.6431316847212059955868635244552
247,1.6439486061020180108692174836573
248,1.6447622263430128518298648331634
249,1.6455725720275945559644395773224
250,1.6463796694193783880138375283277
251,1.6471835444673004150493563147122
252,1.6479842228106244910327791436705
253,1.6487817297838517224492153607346
254,1.6495760904215320712642974120101
255,1.6503673294629819746295768777759
256,1.6511554713569080660975481066166
257,1.6519405402659433890850380361539
258,1.6527225600710925466382560235584
259,1.6535015543760925903444327964065
260,1.6542775465116900340888242319538
261,1.6550505595398343057090468855487
262,1.6558206162577923612726585697654
263,1.6565877392021833118597636911768
264,1.6573519506529385130025005462153
265,1.6581132726371856413085238398068
266,1.6588717269330589252996749030954
267,1.6596273350734387429974112524442
268,1.6603801183496206192527526984081
269,1.6611300978149178920189544554384
270,1.6618772942881937709903828184760
271,1.6626217283573320718427279747198
272,1.6633634203826406049176064934746
273,1.6641023905001946607444815112085
274,1.6648386586251178006961834451194
275,1.6655722444548038276358752685752
276,1.6663031674720782141863318050601
277,1.6670314469483064719134611188807
278,1.6677571019464412153503699370397
279,1.6684801513240194233082334607668
280,1.6692006137361019903220818399628
281,1.6699185076381634570368157336413
282,1.6706338512889294157835040298237
283,1.6713466627531648037746069774535
284,1.6720569599044102404350855195173
285,1.6727647604276732161126211525233
286,1.6734700818220701568935153553719
287,1.6741729414034244247980975247308
288,1.6748733563068166551133307907297
289,1.6755713434890920789090098861134
290,1.6762669197313255632468222361543
291,1.6769601016412422100047748301605
292,1.6776509056555963982054755194369
293,1.6783393480425131756047752309481
294,1.6790254449037870364378878623894
295,1.6797092121771401724493184738439
296,1.6803906656384477827491755862024
297,1.6810698209039203742023744578017
298,1.6817466934322523690843381587241
299,1.6824212985267338228402649888823
300,1.6830936513373270025335103251241
301,1.6837637668627082374000439682005
302,1.6844316599522771344213684479167
303,1.6850973453081303320241180602288
304,1.6857608374870033694149643133623
305,1.6864221509021821000570696258947
306,1.6870812998253829124868705910275
307,1.6877382983885989404242964695896
308,1.6883931605859197406041598507276
309,1.6890459002753205275937289256285
310,1.6896965311804213007422007161755
311,1.6903450668922194581643507035154
312,1.6909915208707934108904449899194
313,1.6916359064469785899306420150913
314,1.6922782368240176505269586784594
315,1.6929185250791841932355106456940
316,1.6935567841653813774805875929249
317,1.6941930269127129661851444237002
318,1.6948272660300321527224077739643
319,1.6954595141064653117502059613446
320,1.6960897836129106751860371524205
321,1.6967180869035158522568444668184
322,1.6973444362171303080545439946894
323,1.6979688436787363146357639153902
324,1.6985913213008573518057002857356
325,1.6992118809849457195666268838259
326,1.6998305345227475994575473576395
327,1.7004472935976483855404707380704
328,1.7010621697859954742275480960642
329,1.7016751745584034878078843176104
330,1.7022863192810383633396006391263
331,1.7028956152168817454836091805498
332,1.7035030735269767445027959604494
333,1.7041087052716554379641838641391
334,1.7047125214117463001496796617010
335,1.7053145328097658740898825842513
336,1.7059147502310907442548145279749
337,1.7065131843451126821294173315867
338,1.7071098457263780235079782726019
339,1.7077047448557073419964043695031
340,1.7082978921213015100449414363885
341,1.7088892978198298610707696539299
342,1.7094789721575029498020907129222
343,1.7100669252511295486150312275664
344,1.7106531671291578735523765082563
345,1.7112377077327028593407327687022
346,1.7118205569165569581829055471110
347,1.7124017244501880276665508870467
348,1.7129812200187211194949905600173
349,1.7135590532239077139475113378821
350,1.7141352335850799423917269705450
351,1.7147097705400918854346079766092
352,1.7152826734462476290596027810157
353,1.7158539515812153631113182330797
354,1.7164236141439289365869374860359
355,1.7169916702554772350016631736293
356,1.7175581289599795896002940848301
357,1.7181229992254504574431878194022
358,1.7186862899446526163581639176229
359,1.7192480099359346198871146714312
360,1.7198081679440614501377609299129
361,1.7203667726410301133997814084880
362,1.7209238326268766601174406596357
363,1.7214793564304692248231148907774
364,1.7220333525102921100172736505718
365,1.7225858292552191503552945665744
366,1.7231367949852752348022811007469
367,1.7236862579523888787603113076511
368,1.7242342263411326348896806120044
369,1.7247807082694559751638190555602
370,1.7253257117894063573266312832674
371,1.7258692448878413290563566947886
372,1.7264113154871306263093743437518
373,1.7269519314458482325543260352092
374,1.7274911005594587073714633693243
375,1.7280288305609884759815757001460
376,1.7285651291216935359162156953851
377,1.7291000038517153700347114334995
378,1.7296334623007282332952699377618
379,1.7301655119585796530770793040058
380,1.7306961602559208998146466318268
381,1.7312254145648303033749163662979
382,1.7317532821994265333436241966670
383,1.7322797704164765178775663536444
384,1.7328048864159929648196513025505
385,1.7333286373418251063268489849277
386,1.7338510302822433256586724924478
387,1.7343720722705134154573335060285
388,1.7348917702854644043123283945281
389,1.7354101312520506262881971257961
390,1.7359271620419052225146632734285
391,1.7364428694738853917719741539579
392,1.7369572603146129984403096968901
393,1.7374703412790080112911163195999
394,1.7379821190308133542083215022132
395,1.7384926001831140257028658238131
396,1.7390017912988501380788042287684
397,1.7395096988913235061492486459953
398,1.7400163294246977936267420667048
399,1.7405216893144907829695600210925
400,1.7410257849280630686312204594692
401,1.7415286225850992226232456204975
402,1.7420302085580821775972098032521
403,1.7425305490727636481758552534910
404,1.7430296503086284836129329756636
405,1.7435275183993504172164796679572
406,1.7440241594332453215604062989238
407,1.7445195794537190861937218277849
408,1.7450137844597076210316682859071
409,1.7455067804061118464954543513032
410,1.7459985732042301848689459823102
411,1.7464891687221828128800764213618
412,1.7469785727853312580861916849639
413,1.7474667911766944181134387234693
414,1.7479538296373574265849373609901
415,1.7484396938668776496914020155575
416,1.7489243895236842430267409570683
417,1.7494079222254741171658701906657
418,1.7498902975496014752121770590912
419,1.7503715210334652008158232236795
420,1.7508515981748890785761235234270
421,1.7513305344324987990020565031382
422,1.7518083352260950296242703336151
423,1.7522850059370203883891208679432
424,1.7527605519085239330504935972169
425,1.7532349784461195459093857798368
426,1.7537082908179418207323735261890
427,1.7541804942550969364684389643369
428,1.7546515939520085314425435154172
429,1.7551215950667624904027389217311
430,1.7555905027214435065170147090099
431,1.7560583220024709219626060652697
432,1.7565250579609309966118505266998
433,1.7569907156129009427002309017068
434,1.7574552999397758234025522805775
435,1.7579188158885861389794985330497
436,1.7583812683723140014735563091550
437,1.7588426622702060593111440397598
438,1.7593030024280821538631420028359
439,1.7597622936586403892551839037459
440,1.7602205407417596866284294644204
441,1.7606777484247969826896930146220
442,1.7611339214228826361843547035910
443,1.7615890644192136899731574396911
444,1.7620431820653396080695028404877
445,1.7624962789814498182819836150016
446,1.7629483597566540847959165993242
447,1.7633994289492628798479235488046
448,1.7638494910870609726791594444463
449,1.7642985506675820762564553660171
450,1.7647466121583767041865688300594
451,1.7651936799972807409011127899054
452,1.7656397585926775664444245590360
453,1.7660848523237594789191087655950
454,1.7665289655407848035210518603287
455,1.7669721025653343120190569604711
456,1.7674142676905622496607010818040
457,1.7678554651814466651933494805975
458,1.7682956992750354398791031338453
459,1.7687349741806905294102034062968
460,1.7691732940803300610490926825669
461,1.7696106631286661356998613946498
462,1.7700470854534415479420165302760
463,1.7704825651556640277793190520514
464,1.7709171063098361649893098077728
465,1.7713507129641849847904683799748
466,1.7717833891408883055038161825543
467,1.7722151388362971587059510676739
468,1.7726459660211592874937574401771
469,1.7730758746408361995382204318977
470,1.7735048686155212994472258344780
471,1.7739329518404533675240789041431
472,1.7743601281861296825127381270574
473,1.7747864014985141392112737617231
474,1.7752117755992478649261905907511
475,1.7756362542858512575010311740713
476,1.7760598413319299587030887619586
477,1.7764825404873750959427362623746
478,1.7769043554785624682910486918405
479,1.7773252900085495661577493116210
480,1.7777453477572708191862392480826
481,1.7781645323817296232181084349182
482,1.7785828475161907150885511590136
483,1.7790002967723682752264695254629
484,1.7794168837396125777871381372075
485,1.7798326119850966651694035761384
486,1.7802474850539976316824368051045
487,1.7806615064696793651185069714262
488,1.7810746797338713426894359236006
489,1.7814870083268467093991463157714
490,1.7818984957075975018671169575509
491,1.7823091453140091517733032942972
492,1.7827189605630328569976052957942
493,1.7831279448508557953476068772044
494,1.7835361015530702747949804050039
495,1.7839434340248400125980624493032
496,1.7843499456010667876088742184846
497,1.7847556395965531511615605092145
498,1.7851605193061651416686745880108
499,1.7855645880049925001196082636811
500,1.785967848948508516820868000480
501,1.786370305372725255256919914478
502,1.786771960494351608088685123565
503,1.787172817510945653248604057283
504,1.787572879601069153799205029941
505,1.787972149924437048847035091145
506,1.788370631622067665421859390287
507,1.788768327816431499166716788821
508,1.789165241611598203615131925669
509,1.789561376093380018755378844527
510,1.789956734329477691929442314143
511,1.790351319369622121948808675967
512,1.790745134245715626428458105388
513,1.791138181971971447880452228569
514,1.791530465545052174834953688755
515,1.791921987944207452091941616777
516,1.792312752131409190298340053185
517,1.792702761051485349446740363630
518,1.793092017632254081541738849499
519,1.793480524784655014235827091633
520,1.793868285402880532299969437603
521,1.794255302364503852017502204791
522,1.794641578530608164564863566402
523,1.795027116745913285398438694757
