Eigenstate,Potential Energy
1,0.500000000012876047303548653668468002
2,0.64623093773516274471902209678274609
3,0.73633760995186005456170129685469169
4,0.79966527832847053429413121309945664
5,0.8480465761764397747894423764660220
6,0.8870659982486184380019958202412939
7,0.9197208259823264463537283338216993
8,0.9477838457540661455138985725249228
9,0.9723835565698628168984973117001186
10,0.9942802125781302103965657152320537
11,1.0140093839198009291375908151561670
12,1.0319621658994281331565053805399307
13,1.0484326885827610449558276238057434
14,1.0636476496528971012198956358124982
15,1.0777854302244611808360409367825727
16,1.090988899714047183685686334518001
17,1.103374249301720197648818892946891
18,1.115037242937214594879950043042433
19,1.126057740443910775475576368115975
20,1.136503035152771039112312262435300
21,1.146430359984036381412891318937294
22,1.155888798605966365660456420309977
23,1.164920763371363595215458997720212
24,1.173563152717995742640479631499614
25,1.181848267964521847515634630306971
26,1.189804547118079998673308057438921
27,1.197457157836863119444037684200129
28,1.204828480789158768116071644881977
29,1.211938506855301046184632378916883
30,1.218805165969495138980651862990920
31,1.225444601252536514121064438799410
32,1.231871399008547219171464013752996
33,1.238098782849203916280351297264518
34,1.244138778458386025766280186463283
35,1.250002354170977285234053402334646
36,1.255699541506075152480104073667946
37,1.261239538990777932117222788908276
38,1.266630801980300762857165300950417
39,1.271881120682322952991514788883914
40,1.276997688197648368162159026700148
41,1.281987160072510301869406158745359
42,1.286855706602859657723300231690525
43,1.291609058924488927578776013290169
44,1.296252549754750434233447919698782
45,1.300791149514057738404778119255514
46,1.305229498442222827139033305811827
47,1.309571935231205088497319898430797
48,1.313822522618261713136222059163868
49,1.317985070318826619521150997418775
50,1.32206315562432228587156131218492
51,1.32606014194464190947670111705890
52,1.32997919553669409973127961466782
53,1.33382330062795219270293054558880
54,1.33759527311638914359439718179035
55,1.34129777300470346095763291673690
56,1.34493331570666707639702874456969
57,1.34850428234622707838440883884468
58,1.35201292915519605252124308494125
59,1.35546139606261182331168376583546
60,1.35885171455782288481051993137282
61,1.36218581489979158000799632394742
62,1.36546553273680608370203528230217
63,1.36869261519355035458965802894869
64,1.37186872647616874238887025170785
65,1.37499545304042709583075624713637
66,1.37807430836322487830867928546319
67,1.38110673735345050664663937825620
68,1.38409412043441596764119180597407
69,1.38703777732679409630525968500081
70,1.38993897055805363147892352097249
71,1.39279890872178846074154426742269
72,1.39561874950803922418043068391212
73,1.39839960252365244016804618387712
74,1.40114253191990346774746289931343
75,1.40384855884297851912300936708372
76,1.40651866372146137899814230277925
77,1.40915378840366808908466529686599
78,1.41175483815650705792744187756889
79,1.41432268353649523619666738981500
80,1.41685816214262287195550650700178
81,1.41936208025991001893436839880797
82,1.42183521440173652028972145222898
83,1.42427831275833845653577975660311
84,1.42669209655823975462133126830871
85,1.42907726134882837895035532963487
86,1.43143447820177065975585036445019
87,1.43376439484849984343641524839887
88,1.43606763675059157172952643049872
89,1.43834480810945549443396992382426
90,1.44059649281942900366463466525647
91,1.44282325536803762557221136657913
92,1.44502564168689830792124381341564
93,1.44720417995647958686437092457739
94,1.44935938136768968751249454760408
95,1.45149174084304245887162468343961
96,1.45360173771994922160075878626415
97,1.45568983639850026493550105653469
98,1.45775648695592685482751656692312
99,1.45980212572978114316069506198842
100,1.46182717587172502748894090306009
101,1.46383204787368970658594744172018
102,1.46581714006804210237629060133116
103,1.46778283910328640520430495517068
104,1.46972952039672173468673726784887
105,1.47165754856538383463836110435288
106,1.47356727783650795631596737809117
107,1.47545905243867200227075793594682
108,1.47733320697469976354478025595806
109,1.47919006677733548941288149181298
110,1.48102994824863860874661042832760
111,1.48285315918398156087796118376165
112,1.48465999908148426020738704358791
113,1.48645075943766318300644945449102
114,1.48822572403002430710910636063858
115,1.48998516918728868668308174380513
116,1.49172936404789111262455149143888
117,1.49345857080736059611260083332011
118,1.49517304495515038175433206144033
119,1.49687303550145148303524105584207
120,1.49855878519449789055444107467462
121,1.50023053072883333628014774321489
122,1.50188850294499058392800505696927
123,1.50353292702100202263285481704645
124,1.50516402265614266127589328945888
125,1.50678200424727705456603823925871
126,1.50838708105816649467678356763079
127,1.50997945738207222435341177158382
128,1.51155933269796784021554775503128
129,1.51312690182066198174193702737693
130,1.51468235504511401955705489435718
131,1.51622587828521005252107936576580
132,1.51775765320725154592394448393923
133,1.51927785735839716150031546086657
134,1.52078666429028705402332658762370
135,1.52228424367806080089254789496872
136,1.52377076143497644360129091582238
137,1.52524637982282481202465999187894
138,1.52671125755831969047928044418578
139,1.52816554991564227859995405277415
140,1.52960940882530295411022048976704
141,1.53104298296947878707390620627130
142,1.53246641787397718194755864156350
143,1.53387985599696737358448743830413
144,1.53528343681461432370402745562579
145,1.53667729690374537658068703788430
146,1.53806157002167216395676183067666
147,1.53943638718328204621610062125357
148,1.54080187673551441882336088000116
149,1.54215816442932368495871523292455
150,1.54350537348923253520093833638275
151,1.54484362468057144848783261275812
152,1.54617303637449471349847646245284
153,1.54749372461086192012498713128642
154,1.54880580315906882024960705040852
155,1.55010938357690579379299309268306
156,1.55140457526752178636965069595678
157,1.55269148553456476512638811063179
158,1.55397021963557051083713888680157
159,1.5552408808336634190595474590479
160,1.5565035704476356478629963635988
161,1.5577583879004631082189654041382
162,1.5590054307663177581250096762720
163,1.5602447948161310537317028429630
164,1.5614765740617631940373746478336
165,1.5627008607988267593381677139704
166,1.5639177456482152589921887676693
167,1.5651273175963838207870119351143
168,1.5663296640344247107938933522434
169,1.5675248707959827457693170614251
170,1.5687130221940503411892889537117
171,1.5698942010566823893471324236899
172,1.5710684887616688341424794844959
173,1.5722359652702003448620808546060
174,1.5733967091595629324362053592139
175,1.5745507976548954930734268467542
176,1.5756983066600399855963964085354
177,1.5768393107875175029857838532181
178,1.5779738833876593924983381127423
179,1.5791020965769198692745374710971
180,1.5802240212654010698044140480804
181,1.5813397271836131938073323201008
182,1.5824492829084974298806991087982
183,1.5835527558887347141610597689505
184,1.5846502124693645635031302662656
185,1.5857417179157357912694367743237
186,1.5868273364368100743193268230638
187,1.5879071312078421716638500110133
188,1.5889811643924522310700790139260
189,1.5900494971641139146714964881655
190,1.5911121897270739946279429818686
191,1.5921693013367226413524551553699
192,1.5932208903194307864726662256504
193,1.5942670140918728643389417367119
194,1.5953077291798482728253663597331
195,1.5963430912366194857453021895503
196,1.5973731550607805087438018169902
197,1.5983979746136700539497999527576
198,1.5994176030363435953288078479715
199,1.6004320926661171385512186301894
200,1.6014414950526966455368439112797
201,1.6024458609739040900540675780300
202,1.6034452404510135204845124549279
203,1.6044396827637077844348845072096
204,1.6054292364646675300570540304297
205,1.6064139493938024493880271776321
206,1.6073938686921377824062356765712
207,1.6083690408153619524292641686149
208,1.6093395115470495542571909821647
209,1.6103053260115654378886772165567
210,1.6112665286866613834084306143976
211,1.6122231634157727260019735775318
212,1.6131752734200251582194031175613
213,1.6141229013099560873755345450484
214,1.6150660890969655237695996790376
215,1.6160048782044957059486390787929
216,1.6169393094789534174646513779621
217,1.6178694232003789541604163404051
218,1.6187952590928707144264122970777
219,1.6197168563347686853571851089948
220,1.6206342535686093329272571290131
221,1.6215474889108497984686315557008
222,1.6224565999613785988074225066122
223,1.6233616238128063908828192512262
224,1.6242625970595518601384137867014
225,1.6251595558067252892201657070359
226,1.6260525356788133449135575147838
227,1.6269415718281737261579673359562
228,1.6278266989433414833290728946733
229,1.6287079512571541609241140509229
230,1.6295853625547004498778294888999
231,1.6304589661810941387629074691728
232,1.6313287950490837727790069700260
233,1.6321948816464930060179324641715
234,1.6330572580435077930538182610853
235,1.6339159558998035909411888334986
236,1.6347710064715222703718289473935
237,1.6356224406181023560997335931333
238,1.6364702888089643276273245296346
239,1.6373145811300564157144731287826
240,1.6381553472902630481083735085088
241,1.6389926166276802258234984376406
242,1.6398264181157606859020206393715
243,1.6406567803693328814073871905967
244,1.6414837316504954668667228744454
245,1.6423072998743916622517572878136
246,1.6431275126148660140446030741515
247,1.6439443971100049351524948110019
248,1.6447579802675686042038732960378
249,1.6455682886703091927195290291135
250,1.6463753485811858042574862780885
251,1.6471791859484740249365039457587
252,1.6479798264107728832310681240215
253,1.6487772953019142906338495638944
254,1.6495716176557746194354441433597
255,1.6503628182109922970437444118985
256,1.6511509214155915016023112092922
257,1.6519359514315183496449499612156
258,1.6527179321390860198378903598120
259,1.6534968871413356156527208995265
260,1.6542728397683131526671124551524
261,1.6550458130812629835431050118139
262,1.6558158298767423854075530089378
263,1.6565829126906561595140732376582
264,1.6573470838022166933369186895777
265,1.6581083652378280096215616076441
266,1.6588667787748959694216546824088
267,1.6596223459455678416515092179588
268,1.6603750880404012721501927090211
269,1.6611250261119669214534884190587
270,1.6618721809783804946948803090433
271,1.6626165732267734468688862543176
272,1.6633582232166963422975451406019
273,1.6640971510834623106911149171337
274,1.6648333767414278080969819830077
275,1.6655669198872145575926112989939
276,1.6662978000028709473510006664150
277,1.6670260363589803693688287708523
278,1.6677516480177082527808532831763
279,1.6684746538357992942051096194097
280,1.6691950724675169779644727073815
281,1.6699129223675332749875663988068
282,1.6706282217937660166370316324017
283,1.6713409888101671558912378523511
284,1.6720512412894590723944627244226
285,1.6727589969158257286155346888255
286,1.6734642731875547018401874938708
287,1.6741670874196351512677183058739
288,1.6748674567463081219675566594808
289,1.6755653981235738337396563776684
290,1.6762609283316566873853775975793
291,1.6769540639774258293088603270531
292,1.6776448214967741593348011358868
293,1.6783332171569596874968708852040
294,1.6790192670589042766905119570601
295,1.6797029871394518583148402769620
296,1.6803843931735937064427306600857
297,1.6810635007766507022232800074703
298,1.6817403254064219052474423058605
299,1.6824148823652962347113417768407
300,1.6830871868023290109595827554203
301,1.6837572537152837688232258852944
302,1.6844250979526414356616089100570
303,1.6850907342155740472135413339794
304,1.6857541770598865787636908304948
305,1.6864154408979283201270083972613
306,1.6870745400004730576476820040175
307,1.6877314884985652451621187581490
308,1.6883863003853396423511139518154
309,1.6890389895178105097428068319388
310,1.6896895696186306955092882791979
311,1.6903380542778242089561019820555
312,1.6909844569544897938330109293013
313,1.6916287909784768942117352462841
314,1.6922710695520358172001383276893
315,1.6929113057514414121323448456829
316,1.6935495125285916418731036848243
317,1.6941857027125785848376067729880
318,1.6948198890112372189681009564780
319,1.6954520840126691292254352416219
320,1.6960823001867411398502093400501
321,1.6967105498865627903240918587594
322,1.6973368453499387694583183518239
323,1.6979611987007998216450853682640
324,1.6985836219506111024073809262044
325,1.6992041269997597452246104414047
326,1.6998227256389198768565689077402
327,1.7004394295503979019177047930313
328,1.7010542503094552458920602815124
329,1.7016671993856135314438104400590
330,1.7022782881439386196853193332767
331,1.7028875278463049549750990263994
332,1.7034949296526412744655811956366
333,1.7041005046221580609342101827978
334,1.7047042637145549228993832159618
335,1.7053062177912122169318113999959
336,1.7059063776163629701909151869903
337,1.7065047538582479754099049814994
338,1.7071013570902551171596755425997
339,1.7076961977920389938761192809622
340,1.7082892863506269269689723324155
341,1.7088806330615070705675010999155
342,1.7094702481297011190301308285916
343,1.7100581416708212499849097179329
344,1.7106443237121112965854823627148
345,1.7112288041934739682942593939962
346,1.7118115929684815949653493816437
347,1.7123926998053739595633525552553
348,1.7129721343880400312195582174435
349,1.7135499063169871435277239222074
350,1.7141260251102951603973907462048
351,1.7147005002045577170464380542092
352,1.7152733409558102184755145433984
353,1.7158445566404438797805605653436
354,1.7164141564561072227578689690343
355,1.7169821495225953940635958069808
356,1.7175485448827255146947822938321
357,1.7181133515032012998151376886049
358,1.7186765782754661929114655886084
359,1.7192382340165407594046404587857
360,1.7197983274698532776195053202159
361,1.7203568673060552719683884158618
362,1.7209138621238284699339411349217
363,1.7214693204506777784505829804591
364,1.7220232507437153036647449675941
365,1.7225756613904336504276048350072
366,1.7231265607094673791769235729723
367,1.7236759569513455122055378878461
368,1.7242238582992318780328278870584
369,1.7247702728696579264123979002388
370,1.7253152087132437271392379972704
371,1.7258586738154100059535992241440
372,1.7264006760970801740093674540894
373,1.7269412234153723176109253122131
374,1.7274803235642854566867835964398
375,1.7280179842753707635585687852296
376,1.7285542132183991982098027167564
377,1.7290890180020173492538571400565
378,1.7296224061743946480016502107669
379,1.7301543852238637954195407024883
380,1.7306849625795511587310562515815
381,1.7312141456120000130871538368280
382,1.7317419416337837464636399125976
383,1.7322683579001137024360202741083
384,1.7327934016094366245210771954388
385,1.7333170799040253233280970611721
386,1.7338393998705632251605179240542
387,1.7343603685407185513912641381686
388,1.7348799928917120653971226139022
389,1.7353982798468790617236718397983
390,1.7359152362762227865718553535660
391,1.7364308689969596065317155394171
392,1.7369451847740595339238516451326
393,1.7374581903207795822188180017639
394,1.7379698922991885326144638570339
395,1.7384802973206859686262386366618
396,1.7389894119465152295406468020508
397,1.7394972426882699126217390054190
398,1.7400037960083939321869205937077
399,1.7405090783206737013247939491420
400,1.7410130959907267361940790271940
401,1.7415158553364827318044490703627
402,1.7420173626286578544767302636084
403,1.7425176240912250717033712969043
404,1.7430166459018784124794547517287
405,1.7435144341924886235302253811232
406,1.7440109950495563304501965117245
407,1.7445063345146598204542316217604
408,1.7450004585848949499151277097081
409,1.7454933732133100377447147655581
410,1.7459850843093382590771710388491
411,1.7464755977392217992523946943002
412,1.7469649193264313506688285899105
413,1.7474530548520820315452100252430
414,1.7479400100553421504165031771065
415,1.7484257906338391003063985905353
416,1.7489104022440588121892808509152
417,1.7493938505017416162079655660066
418,1.7498761409822716738632118988236
419,1.7503572792210642596664335980179
420,1.7508372707139458741569600190287
421,1.7513161209175311404470939725651
422,1.7517938352495957658767715746943
423,1.7522704190894434048973377584095
424,1.7527458777782700368878721288049
425,1.7532202166195222382430780657676
426,1.7536934408792529555513838163666
427,1.7541655557864722644709816087352
428,1.7546365665334931279696960050281
429,1.7551064782762760662935708514122
430,1.7555752961347656007473078645262
431,1.7560430251932259749171060053483
432,1.7565096705005733028268757025102
433,1.7569752370706994819003906452175
434,1.7574397298827989686422749565467
435,1.7579031538816862406870457495455
436,1.7583655139781118461809057429323
437,1.7588268150490752018403623687132
438,1.7592870619381331217252335715709
439,1.7597462594557047580038643405619
440,1.7602044123793740248967139389824
441,1.7606615254541866656232747924573
442,1.7611176033929455259705554273911
443,1.7615726508765036821496716183059
444,1.7620266725540500422826494137724
445,1.7624796730433967521480690523016
446,1.7629316569312594295050153234810
447,1.7633826287735373961329227632173
448,1.7638325930955871257577111821416
449,1.7642815543924967483372318682420
450,1.7647295171293537631149897470437
451,1.7651764857415134635037320561525
452,1.7656224646348609151140410861873
453,1.7660674581860722299660100505373
454,1.7665114707428715257989810148218
455,1.7669545066242871943168529590359
456,1.7673965701209027753332361043405
457,1.7678376654951071324876366684783
458,1.7682777969813403263934455759048
459,1.7687169687863376991060100989265
460,1.7691551850893718122166861293328
461,1.7695924500424900882605987834555
462,1.7700287677707513684505920189175
463,1.7704641423724599904698797557464
464,1.7708985779193955471910465019037
465,1.7713320784570422950172700416061
466,1.7717646480048153425034394004191
467,1.7721962905562828997332727468226
468,1.7726270100793896040526076822681
469,1.7730568105166733988152577065150
470,1.7734856957854834896402905822955
471,1.7739136697781936452459111397008
472,1.7743407363624151404295426298468
473,1.7747668993812046920534190623325
474,1.7751921626532748919860218751929
475,1.7756165299731960597105025487929
476,1.7760400051116020283607317497344
477,1.7764625918153901971361716820722
478,1.7768842938079205260384761422862
479,1.7773051147892123622667237361297
480,1.7777250584361394928053438599505
481,1.7781441284026219740312951959217
482,1.7785623283198183070781456968301
483,1.7789796617963133389046244516283
484,1.7793961324183047087712274708156
485,1.7798117437497893169492970137832
486,1.7802264993327444004032245147930
487,1.7806404026873100641740702275535
488,1.7810534573119678648963287167011
489,1.7814656666837186744921061114278
490,1.7818770342582576870299894767359
491,1.7822875634701487028913561266305
492,1.7826972577329962782885566901107
493,1.7831061204396157149990280942528
494,1.7835141549622019842077288218158
495,1.7839213646524957768043052119549
496,1.7843277528419499244036699367755
497,1.7847333228418918764562534432323
498,1.7851380779436861785440098402622
499,1.7855420214188944490232433727944
500,1.785945156519434984323844507228
501,1.786347486477737738750229127163
502,1.786749014506902133768426953955
503,1.787149743800849164704834043397
504,1.787549677534475648490073215215
505,1.787948818863803459705051830079
506,1.788347170926129484804364755581
507,1.788744736840174142328180174040
508,1.789141519706228108841191955775
509,1.789537522606295481264439714028
510,1.789932748604239428609357893460
511,1.790327200745923563959146915602
512,1.790720882059352936660720426940
513,1.791113795554813260230621301824
514,1.791505944225009052203102220332
515,1.791897331045201059984367621045
516,1.792287958973341182867140466143
517,1.792677830950205964761543104828
518,1.793066949899530442845788355662
519,1.793455318728139133897954095353
520,1.793842940326077015130216094992
521,1.794229817566737294571568316564
522,1.794615953306990247018147870409
523,1.795001350387309552526256552800
