Eigenstate,Potential Energy
1,0.500000000019268102061876957658571682
2,0.64623093777688668837671682749433536
3,0.73633761007442050479706693787167406
4,0.79966527858374919425856292508635167
5,0.8480465766186329682749482464885414
6,0.8870659989328699199060913890586365
7,0.9197208269642233879679884710811429
8,0.9477838470894286907794455339494855
9,0.9723835583146459973427150288288248
10,0.9942802147883739520972604962945225
11,1.0140093866516026990789114664691292
12,1.0319621692089271221431379707523288
13,1.0484326925261286309435553413492174
14,1.0636476542863309269081248582862436
15,1.0777854356041814115501683203920152
16,1.090988905896294134686136849274521
17,1.103374256342752852112867269928531
18,1.115037250893309719071195435656922
19,1.126057749371362445171709367793495
20,1.136503045107890456031987179804975
21,1.146430371023151898494877718290039
22,1.155888810785423665627725389069911
23,1.164920776747525983579269536764534
24,1.173563167347244527479244583805035
25,1.181848283903256785990593603962093
26,1.189804564422719795543416547465562
27,1.197457176563845966588358064568179
28,1.204828500994942916760326751708810
29,1.211938528596365405485520907517708
30,1.218805189302339896064746991691424
31,1.225444626233683771752411085631482
32,1.231871425694541648035179550835150
33,1.238098811296613419489788997223458
34,1.244138808723802413679016809361413
35,1.250002386311016959033216891383025
36,1.255699575577379795268533043126330
37,1.261239575050015206501839474286891
38,1.266630840084165014183911220326148
39,1.271881160887535917537856493136328
40,1.276997730560959885712516830706208
41,1.281987204650699032194922502990850
42,1.286855753452733800565846853869322
43,1.291609108102886945803546251004848
44,1.296252601318541779867692627060288
45,1.300791203520143581324406201563645
46,1.305229554947536786201625725358140
47,1.309571994292713964950946383315820
48,1.313822584292966226159413473086953
49,1.317985134663762143771292994398016
50,1.32206322269655959093758385427858
51,1.32606021180128790114777262250869
52,1.32997926823489256300674713526939
53,1.33382337622488453648035290880085
54,1.33759535166927514698250913124115
55,1.34129785457080202116970293897426
56,1.34493340034327695818753938146186
57,1.34850437011068766499846635653889
58,1.35201302010488809813180670775821
59,1.35546149025495820692460745268526
60,1.35885181205028936562175076278196
61,1.36218591574988755420106648754521
62,1.36546563700208534267734742273301
63,1.36869272293161184462000882500429
64,1.37186883774465732569827557641704
65,1.37499556789703431309598845923065
66,1.37807442686568971258497558732370
67,1.38110685955956014872088767936291
68,1.38409424640200658281756420694566
69,1.38703790711375159262974337253984
70,1.38993910422231442941050251147790
71,1.39279904632134026427902491290599
72,1.39561889110092179345494044169987
73,1.39839974816795836551225139245821
74,1.40114268167377894525340776489508
75,1.40384871276462412770131179995365
76,1.40651882186913285895199279722062
77,1.40915395083567712221276046258562
78,1.41175500493122204917059060659866
79,1.41432285471234209684338994985818
80,1.41685833777808580442243854147103
81,1.41936226041353230313777692469643
82,1.42183539913212130162489142219719
83,1.42427850212414953548142231245680
84,1.42669229061820237798654990265067
85,1.42907746016173003278207714719688
86,1.43143468182646186392493726190994
87,1.43376460334389494792101029840896
88,1.43606785017566955461446504163137
89,1.43834502652326076164536191340748
90,1.44059671628107219045898516609051
91,1.44282348393669639979970554631279
92,1.44502587542181817508304137212565
93,1.44720441891697469698398510823023
94,1.44935962561314364384154036467736
95,1.45149199043290912845043679506767
96,1.45360199271375354769454864777225
97,1.45569009685583908136695301246190
98,1.45775675293646970222684939492149
99,1.45980239729327108715444736352981
100,1.46182745307797947884886688753270
101,1.46383233078260124335959291415627
102,1.46581742873957929402098640331999
103,1.46778313359749463874643869065678
104,1.46972982077372404292836953058371
105,1.47165785488538172643335693986011
106,1.47356759015978224893798154154536
107,1.47545937082558365589555485449480
108,1.47733353148569071786950475129882
109,1.47919039747292950243505521738783
110,1.48103028518944209772574701947425
111,1.48285350243068444550283785792435
112,1.48466034869486080799215454208438
113,1.48645111547857285693888301811386
114,1.48822608655941261557444695242393
115,1.48998553826618803568704327324618
116,1.49172973973742166033920650059099
117,1.49345895316873110976897912283303
118,1.49517343404965909690571514344670
119,1.49687343139048696521524961537808
120,1.49855918793953989935416085591564
121,1.50023094039145369186865567483965
122,1.50188891958685403604079629527355
123,1.50353335070386712205280828407746
124,1.50516445344186263383152207876899
125,1.50678244219780067767194324078813
126,1.50838752623553897644131724919175
127,1.50997990984843608527872788325014
128,1.51155979251556379751532210994073
129,1.51312736905182983630218948651200
130,1.51468282975229354556563230670883
131,1.51622636053094188979150004367826
132,1.51775814305417809493945560543569
133,1.51927835486926348120409175646939
134,1.52078716952794176238095559279322
135,1.52228475670545697825305095143868
136,1.52377128231517253888303144176971
137,1.52524690861898555175269287945885
138,1.52671179433371699070081121903443
139,1.52816609473365615970469906880295
140,1.52960996174942245858265162527603
141,1.53104354406330290020444328205130
142,1.53246698720121575552997390196848
143,1.53388043362144205262691017448124
144,1.53528402280025947618108446534334
145,1.53667789131460902625445301186364
146,1.53806217292191692629437637956088
147,1.53943699863718606743203921405136
148,1.54080249680747231807448212173841
149,1.54215879318384749972039730695056
150,1.54350601099095266985274832668736
151,1.54484427099423762613731607902637
152,1.54617369156497693107186161636581
153,1.54749438874315140675374061977251
154,1.54880647629827899898185526480012
155,1.55011006578827324665912160104245
156,1.55140526661640722283147886905392
157,1.55269218608645399393947915374988
158,1.55397092945607541535598948954019
159,1.5552415999885229360155896648272
160,1.5565042990027167496454446146706
161,1.5577591259217617886887931516743
162,1.5590061783199600219924898997981
163,1.5602455519683739095280671631511
164,1.5614773408789956507113754847132
165,1.5627016373475708265085471490412
166,1.5639185319951269508871005858043
167,1.5651281138082541639017323405559
168,1.5663304701781807552983641332176
169,1.5675256869386885806971148851587
170,1.5687138484029081134399423056973
171,1.5698950373990333265337997879291
172,1.5710693353049942713172508731899
173,1.5722368220821227551512994294057
174,1.5733975763078469616184527619623
175,1.5745516752074489981329747116301
176,1.5756991946849150772851470921806
177,1.5768402093529115924268981833022
178,1.5779747925619162418649574203047
179,1.5791030164285306465772057133540
180,1.5802249518630054078210259193157
181,1.5813406685960002531896229832760
182,1.5824502352046069664714772291596
183,1.5835537191376581505566478538201
184,1.5846511867403460648956474619579
185,1.5857427032781733456037792566826
186,1.5868283329602565767999241723073
187,1.5879081389620065136464799874209
188,1.5889821834472003933742515530797
189,1.5900505275894700653491416956790
190,1.5911132315932215912243704195182
191,1.5921703547140055376957169037240
192,1.5932219552783543440277866032891
193,1.5942680907031050681636093185810
194,1.5953088175142208521639749230230
195,1.5963441913651290392984235659567
196,1.5973742670545896346504479506607
197,1.5983990985441084845200253189442
198,1.5994187389749093365644734275124
199,1.6004332406844776144929891742173
200,1.6014426552226898474757035682587
201,1.6024470333675397306458820141939
202,1.6034464251404741928064893038387
203,1.6044408798213501260229233097699
204,1.6054304459630233919633308674750
205,1.6064151714055800702983280893291
206,1.6073951032902229678568970916715
207,1.6083702880728192591637671810760
208,1.6093407715371234797627736236142
209,1.6103065988076816151535488914665
210,1.6112678143624277809404858444208
211,1.6122244620449808531501351872588
212,1.6131765850766512758389945394142
213,1.6141242260681624238794275979398
214,1.6150674270311014966070443779685
215,1.6160062293890991485540865466629
216,1.6169406739887518117190731714596
217,1.6178708011102906684079377532283
218,1.6187966504780062470893999895373
219,1.6197182612704319141931534202385
220,1.6206356721302987699713045712273
221,1.6215489211742598507054116346081
222,1.6224580460024008346169357912384
223,1.6233630837075308123046039684570
224,1.6242640708842681809990347547297
225,1.6251610436379242191692256623733
226,1.6260540375931878794137610041614
227,1.6269430879026204424750081125910
228,1.6278282292549618425675417349176
229,1.6287094958832558161558914060337
230,1.6295869215727985604097160082143
231,1.6304605396689126905906354170404
232,1.6313303830845569052750691915344
233,1.6321964843077663449009900227815
234,1.6330588754089397896878127823354
235,1.6339175880479668680125907839435
236,1.6347726534812049739937833616756
237,1.6356241025683095143922789026633
238,1.6364719657789192158231240553318
239,1.6373162731992019278398763825700
240,1.6381570545382630752900225898162
241,1.6389943391344210412709935386074
242,1.6398281559613523366175168686204
243,1.6406585336341105866734149515308
244,1.6414855004150210235638343314185
245,1.6423090842194548570579678164216
246,1.6431293126214860425690836919071
247,1.6439462128594318280561309742749
248,1.6447598118412846603599209177869
249,1.6455701361500304194678137578291
250,1.6463772120488633648060217710426
251,1.6471810654862956929649144526607
252,1.6479817221011645047503818168622
253,1.6487792072275412531577715850429
254,1.6495735458995433285186349402547
255,1.6503647628560516602429167039418
256,1.6511528825453344199165030349244
257,1.6519379291295832164916159814482
258,1.6527199264893582276220049245590
259,1.6534988982279490699863562806147
260,1.6542748676756517942975243622760
261,1.6550478578939623180476829251505
262,1.6558178916796910207145053349447
263,1.6565849915689973513080414377677
264,1.6573491798413498984093093886534
265,1.6581104785234104472256879499799
266,1.6588689093928441906933200680233
267,1.6596244939820593071560427162159
268,1.6603772535818759376175018321725
269,1.6611272092451288317630605953514
270,1.6618743817901993861731959090384
271,1.6626187918044863579620962408522
272,1.6633604596478092326828644867762
273,1.6640994054557516888907444217345
274,1.6648356491429423676589381174262
275,1.6655692104062768219032326680955
276,1.6663001087280789231445437773961
277,1.6670283633792092089998978295612
278,1.6677539934221119253260043355869
279,1.6684770177138122654605044740726
280,1.6691974549088558994068475888851
281,1.6699153234621986817664363101720
282,1.6706306416320440346664775167205
283,1.6713434274826312181101651790145
284,1.6720536988869716442647763119171
285,1.6727614735295400429282475593005
286,1.6734667689089165028998827928049
287,1.6741696023403844485264705132584
288,1.6748699909584809531799527134287
289,1.6755679517195040377109640457171
290,1.6762635014039776863857314593273
291,1.6769566566190724212266819727995
292,1.6776474338009843196432749949225
293,1.6783358492172763811079054199836
294,1.6790219189691772797713921567145
295,1.6797056589938395901429473106008
296,1.6803870850665650713746620867545
297,1.6810662128029869418551441591948
298,1.6817430576612184608437401190810
299,1.6824176349439646199804113089134
300,1.6830899598005986952543434175079
301,1.6837600472292040708463751654637
302,1.6844279120785834277552907115616
303,1.6850935690502324703137978076614
304,1.6857570327002817681009964822071
305,1.6864183174414081417547894314311
306,1.6870774375447148558810485038799
307,1.6877344071415778010101715564863
308,1.6883892402254651430264418633614
309,1.6890419506537265293326674880415
310,1.6896925521493521868937462802487
311,1.6903410583027055070586012087866
312,1.6909874825732266302903364989214
313,1.6916318382911084235502860552179
314,1.6922741386589466546064447335704
315,1.6929143967533636829065539992131
316,1.6935526255266070426547100309632
317,1.6941888378081204566935492830613
318,1.6948230463060926324338809230182
319,1.6954552636089809813910778151571
320,1.6960855021870102635830254934538
321,1.6967137743936500757215160831254
322,1.6973400924670672976245410665271
323,1.6979644685315570108859801689825
324,1.6985869145989508669391263100093
325,1.6992074425700046664921965341320
326,1.6998260642357633875590574545132
327,1.7004427912789064828378307741778
328,1.7010576352750706356289005882221
329,1.7016706076941549491476974537266
330,1.7022817199016050008952768129147
331,1.7028909831596772006596899353046
332,1.7034984086286845133689757363029
333,1.7041040073682239253302302396725
334,1.7047077903383838378569849517961
335,1.7053097684009357031964477318077
336,1.7059099523205059607868343140044
337,1.7065083527657311460698963403374
338,1.7071049803103972306888786487531
339,1.7076998454345592585580948794951
340,1.7082929585256473691227439409261
341,1.7088843298795549213652546622438
342,1.7094739697017112156863790722113
343,1.7100618881081384514286663584773
344,1.7106480951264929137278483110768
345,1.7112326006970922090050852730060
346,1.7118154146739260238733769567012
347,1.7123965468256539727951424808109
348,1.7129760068365873461937625474803
349,1.7135538043076583039219361885108
350,1.7141299487573740564061143101428
351,1.7147044496227581210493665345395
352,1.7152773162602783362367875297696
353,1.7158485579467609173002208822456
354,1.7164181838802919688981125208526
355,1.7169862031811068190732272623212
356,1.7175526248924653847566335555410
357,1.7181174579815168077420560204638
358,1.7186807113401526051174697368484
359,1.7192423937858440792792658643880
360,1.7198025140624729254341751611708
361,1.7203610808411467814448550112561
362,1.7209181027210062016060435263691
363,1.7214735882300176499515702870215
364,1.7220275458257575370736112558658
365,1.7225799838961855368090811449258
366,1.7231309107604060604510349219267
367,1.7236803346694207804834090710991
368,1.7242282638068689925571460703850
369,1.7247747062897604482419227073917
370,1.7253196701691963717176994536496
371,1.7258631634310815137051032144254
372,1.7264051939968261991032088757567
373,1.7269457697240383350401355635292
374,1.7274848984072096878060980692764
375,1.7280225877783871202286216751547
376,1.7285588455078402456956932745130
377,1.7290936792047172880276098468202
378,1.7296270964176923145994583642477
379,1.7301591046356056825056910933333
380,1.7306897112880944545222490215201
381,1.7312189237462156602920050533817
382,1.7317467493230595208934820163030
383,1.7322731952743573114447661575911
384,1.7327982687990788254331211725006
385,1.7333219770400230620145925612501
386,1.7338443270844027949259842544448
387,1.7343653259644187723339398850112
388,1.7348849806578274844076561393697
389,1.7354032980885031732885690386114
390,1.7359202851269912745493948807155
391,1.7364359485910536070694787622460
392,1.7369502952462089196888536959536
393,1.7374633318062662681125422868601
394,1.7379750649338498031464993439073
395,1.7384855012409178271221750328127
396,1.7389946472892757693612805415897
397,1.7395025095910827105720840363204
398,1.7400090946093514642955588413355
399,1.7405144087584407811752029392145
400,1.7410184584045439759917466707777
401,1.7415212498661700263647983028633
402,1.7420227894146178883210930383886
403,1.7425230832744468494513872967552
404,1.7430221376239408127284432184865
405,1.7435199585955639764135792283117
406,1.7440165522764140190687058824060
407,1.7445119247086699063760434847476
408,1.7450060818900318229416828397892
409,1.7454990297741560901421449503742
410,1.7459907742710875844741972455548
411,1.7464813212476839164076179121470
412,1.7469706765280349523124893046665
413,1.7474588458938787585020157134775
414,1.7479458350850103912182194314610
415,1.7484316497996878165049858731279
416,1.7489162956950313895829727573396
417,1.7493997783874197421948780467007
418,1.7498821034528792411392684376114
419,1.7503632764274712964858989233440
420,1.7508433028076725013763504798605
421,1.7513221880507515555751844167063
422,1.7517999375751422543554589183868
423,1.7522765567608103788402836027524
424,1.7527520509496181015059045490631
425,1.7532264254456822861876196139194
426,1.7536996855157302894091422986713
427,1.7541718363894507476457578175529
428,1.7546428832598393641886635372511
429,1.7551128312835436079785563175867
430,1.7555816855811991864930666959333
431,1.7560494512377657963213879435001
432,1.7565161333028593009191009604496
433,1.7569817367910756734184042765030
434,1.7574462666823178024087221809601
435,1.7579097279221129843394968046713
436,1.7583721254219290035122688137591
437,1.7588334640594869610084718883875
438,1.7592937486790698345931772137114
439,1.7597529840918274508749102785319
440,1.7602111750760789409102966126650
441,1.7606683263776098390812240253608
442,1.7611244427099673888651004749688
443,1.7615795287547537031675331990780
444,1.7620335891619113985621074282379
445,1.7624866285500110340686687697039
446,1.7629386515065313787921117937404
447,1.7633896625881396775621510415410
448,1.7638396663209651327471899660625
449,1.7642886672008734427182020210083
450,1.7647366696937345493741423573312
451,1.7651836782356910977937143484115
452,1.7656296972334204493310911490894
453,1.7660747310643959911971192458410
454,1.7665187840771441314434663198029
455,1.7669618605915006031905066010241
456,1.7674039648988613750660037552076
457,1.7678451012624328635291985674550
458,1.7682852739174778429437760298563
459,1.7687244870715595672913275746249
460,1.7691627449047837458343089686275
461,1.7696000515700362224195524345088
462,1.7700364111932195714376381172748
463,1.7704718278734872141746474384155
464,1.7709063056834732164264382427413
465,1.7713398486695217360751737078506
466,1.7717724608519132512890254954262
467,1.7722041462250868498245308124918
468,1.7726349087578635950353595718384
469,1.7730647523936634452471302548782
470,1.7734936810507232510009950963788
471,1.7739216986223100972346454584443
472,1.7743488089769342879737518137965
473,1.7747750159585573243969202639289
474,1.7752003233868023802285692703686
475,1.7756247350571561971739499027651
476,1.7760482547411749141613146639621
477,1.7764708861866841633458873700640
478,1.7768926331179781088227230960474
479,1.7773134992360163173888892231247
480,1.7777334882186188558935522940533
481,1.7781526037206581660058149475408
482,1.7785708493742512851428904495645
483,1.7789882287889477935094401346887
484,1.7794047455519163069563286267086
485,1.7798204032281309924873368426509
486,1.7802352053605526911585233078974
487,1.7806491554703114971031404260428
488,1.7810622570568853891179022111506
489,1.7814745135982781428594809363841
490,1.7818859285511943866427200041073
491,1.7822965053512139349882297400375
492,1.7827062474129639879678972801926
493,1.7831151581302891712171381578798
494,1.7835232408764205105113199784672
495,1.7839304990041415332566299375117
496,1.7843369358459547411699428654648
497,1.7847425547142441395176490889535
498,1.7851473589014377680154923067547
499,1.7855513516801677305545874644867
500,1.785954536303429854068610288028
501,1.786356916004738722392438987593
502,1.786758493998285540101899500943
503,1.787159273479090294265145065577
504,1.787559257623156057744564172839
505,1.787958449587618281311431605265
506,1.788356852510894804453885008364
507,1.788754469512834432694916213068
508,1.789151303694863721164178169552
509,1.789547358140130195095609247121
510,1.789942635913648060264807418124
511,1.790337140062439634218267833568
512,1.790730873615676398262196472492
513,1.791123839584818285721262459777
514,1.791516040963751882700507483912
515,1.791907480728927915421115552019
516,1.792298161839496234289715781906
517,1.792688087237439369263730469735
518,1.793077259847706441722132529697
519,1.793465682578344214609526673034
520,1.793853358320628137680856069087
521,1.794240289949190182899635536399
522,1.794626480322147746015129536822
523,1.795011932281230051300199249176
