Eigenstate,Potential Energy
1,0.500000000025272498059889259273338500
2,0.64623093781608023597965647617347367
3,0.73633761018954829551517889209540093
4,0.79966527882354697169037136622805847
5,0.8480465770340112056407284101610588
6,0.8870659995756297129417379881957663
7,0.9197208278865831738418966628607974
8,0.9477838483438267339240077322316890
9,0.9723835599536484198818181549601160
10,0.9942802168646279397850007193499424
11,1.0140093892178109737345534772063316
12,1.0319621723178332511015641856805060
13,1.0484326962305082361508693041174679
14,1.0636476586389862892067427375229507
15,1.0777854406579381231532886247758921
16,1.090988911703999038161730042838379
17,1.103374262957272816165865414624232
18,1.115037258367530975445813172440497
19,1.126057757758190312029019133240350
20,1.136503054460249333906252917163940
21,1.146430381393985462612020249768102
22,1.155888822227695202397609198895690
23,1.164920789314218834781866691942641
24,1.173563181091362616166528656211191
25,1.181848298877825205290775353119130
26,1.189804580680785446533129533357049
27,1.197457194158478234917161186965124
28,1.204828519979234380237274201566096
29,1.211938549023432566675852065760668
30,1.218805211225323935300483520633538
31,1.225444649705751316972646708685564
32,1.231871450768885558635754070760733
33,1.238098838026453581944711822451136
34,1.244138837162386547144765524562666
35,1.250002416511621429495809808861361
36,1.255699607593310437066630022687346
37,1.261239608934608150275109239430547
38,1.266630875890787520467800324556798
39,1.271881198669587215363690825250080
40,1.276997770371872015683060408389586
41,1.281987246543937693595795537447510
42,1.286855797481799202146948168128407
43,1.291609154321314659925203647715148
44,1.296252649779903599756271716072687
45,1.300791254278048381223632951926175
46,1.305229608055631384240499351752346
47,1.309572049804683988578123823518893
48,1.313822642262536980018365203299112
49,1.317985195144699479911159137173232
50,1.32206328574267078127215615654179
51,1.32606027746642251208995395435121
52,1.32997933657294333221857931884187
53,1.33382344728978825168964060330215
54,1.33759542551501352682649939648386
55,1.34129793125140259803440536866775
56,1.34493347991281396301833581056755
57,1.34850445262328291406378028849783
58,1.35201310561471188172697623411962
59,1.35546157881623018000775676496084
60,1.35885190371727944037758730142320
61,1.36218601057691679453212640164722
62,1.36546573504352686062542218208620
63,1.36869282424189169872329562205211
64,1.37186894237825542129229245322165
65,1.37499567590848530456855271700955
66,1.37807453830958390759750580928598
67,1.38110697449054441441009262777159
68,1.38409436487478525399315627339911
69,1.38703802918308738198529717772029
70,1.38993922994302933976580915684470
71,1.39279917574831650287355217823805
72,1.39561902428910268831299174825659
73,1.39839988517234928390145053797131
74,1.40114282254944821425898711418648
75,1.40384885756670395693951656004616
76,1.40651897065282026544663822774118
77,1.40915410365623485745967191747092
78,1.41175516184397952841530084525523
79,1.41432301577269633059804381276975
80,1.41685850304150233224839879919616
81,1.41936242993554612972094843872331
82,1.42183557296833783517124563457236
83,1.42427868033024552846065326459520
84,1.42669247324992687025221287664241
85,1.42907764727490529709696777374625
86,1.43143487347698435392082596313588
87,1.43376479958773624852222643923142
88,1.43606805106887733495515211139097
89,1.43834523212195973051055504278797
90,1.44059692664146505427997206731139
91,1.44282369911506482323443812484341
92,1.44502609547452374421265252338871
93,1.44720464390045988515674009705045
94,1.44935985558393278019583366643680
95,1.45149222544760936914870426504822
96,1.45360223282905584990021584971389
97,1.45569034212851917999681185419152
98,1.45775700342338908951147315241278
99,1.45980265305137799503952804094956
100,1.46182771416430986427056159188672
101,1.46383259725427977642723667112730
102,1.46581770065382034914073101994443
103,1.46778341101160328871960266649857
104,1.46973010374509705605856028876498
105,1.47165814347150856667657408667061
106,1.47356788441824607913019696657095
107,1.47545967081406234409245394734287
108,1.47733383726195784683329950086116
109,1.47919070909485538230351132361901
110,1.48103060271499478189876285940782
111,1.48285382591793074978216009234345
112,1.48466067820196733301001832431960
113,1.48645145106380701391157472898996
114,1.48822642828114365541703104003793
115,1.48998588618288808152569501198415
116,1.49173009390766674345782287923283
117,1.49345931365120220902694993047967
118,1.49517380090314318166398407099605
119,1.49687380467387804180797882248328
120,1.49855956771184006114357304180699
121,1.50023132671177417292083362779048
122,1.50188931251441626846045560258919
123,1.50353375029800379701527544732615
124,1.50516485976201876635039496302686
125,1.50678285530353467514113103202518
126,1.50838794618652371099039574522112
127,1.50998033670445996998076797520529
128,1.51156022633653186648661408182027
129,1.51312780989776482873349533695839
130,1.51468327768333699372484117762710
131,1.51622681560735521103782987535082
132,1.51775860533634368778956952459210
133,1.51927882441768582549071620434820
134,1.52078764640324852354490242845110
135,1.52228524096840011580974850403986
136,1.52377177402662941910490803975654
137,1.52524740783996006460908048211992
138,1.52671230112534067109720633518528
139,1.52816660915718931306356177863360
140,1.52961048386625529080812489482281
141,1.53104407393495665207364882939419
142,1.53246752488934384155387455738100
143,1.53388097918783120442385883460645
144,1.53528457630683089040664794956927
145,1.53667845282341951713118650677104
146,1.53806274249516008278561313086270
147,1.53943757633719341510402564543063
148,1.54080308269671448569141330886188
149,1.54215938732493539061727510423356
150,1.54350661344663863813122280693927
151,1.54484488182741665773000978471392
152,1.54617431083868782972088393415505
153,1.54749501652057798494950700067103
154,1.54880711264275127390854331670814
155,1.55011071076326864119342982980717
156,1.55140592028555177164170173447209
157,1.55269284851352355473215062221075
158,1.55397160070499688531768496444875
159,1.5552422801233754734978227824275
160,1.5565049880877330011409167527039
161,1.5577598240213291211474992245318
162,1.5590068854986217605266426719648
163,1.5602462682908305805549758202554
164,1.5614780664101062305838712306587
165,1.5627023721523539956828717563160
166,1.5639192761387623536784290737441
167,1.5651288673560836738779312427237
168,1.5663312331957097463629149323005
169,1.5675264594915872039124331825857
170,1.5687146305570125796427658483033
171,1.5698958292203471947945893721928
172,1.5710701368596897432959698405079
173,1.5722376334365419754022793473507
174,1.5733983975285033238974043139478
175,1.5745525063610284577596419803735
176,1.5757000358382774696153652521160
177,1.5768410605730919574883251582622
178,1.5779756539161261552110642578682
179,1.5791038879841595564144596794871
180,1.5802258336876219784647097154424
181,1.5813415607573537149040215494537
182,1.5824511377706284717505967016117
183,1.5835546321764621369020763998395
184,1.5846521103202316241485131168032
185,1.5857436374676255998882509182442
186,1.5868292778279480611359896296221
187,1.5879090945767985652903314207645
188,1.5889831498781445479448662122504
189,1.5900515049058094598001946077397
190,1.5911142198643923737210004283397
191,1.5921713540096382844561174191985
192,1.5932229656682754831900042683680
193,1.5942691122573383107384254768344
194,1.5953098503029886301352172630227
195,1.5963452354588539509324163092145
196,1.5973753225238958970768562983646
197,1.5984001654598233936468224674146
198,1.5994198174080647343901324843117
199,1.6004343307063113638796275533090
200,1.6014437569046473144472373967558
201,1.6024481467812752742758120138316
202,1.6034475503578526627604663462926
203,1.6044420169144483678216565373567
204,1.6054315950041317600319550919823
205,1.6064163324672039488688004988428
206,1.6073962764450842997905972277318
207,1.6083714733938580827619035965107
208,1.6093419690974994736327380464893
209,1.6103078086807756511999489990613
210,1.6112690366218434855500389515742
211,1.6122256967645461766401725436426
212,1.6131778323304200702398939607961
213,1.6141254859304160291218182602499
214,1.6150686995763503351851988578371
215,1.6160075146920843287374097605964
216,1.6169419721244467393842897564082
217,1.6178721121539026675650329093639
218,1.6187979745049781891749903893632
219,1.6197195983564438562055851572272
220,1.6206370223512696015223196989206
221,1.6215502846063489500638046714257
222,1.6224594227220097338202624891688
223,1.6233644737913048714156263948596
224,1.6242654744090982715841366782784
225,1.6251624606809484170767426900031
226,1.6260554682317931669306762372484
227,1.6269445322144444199412276128027
228,1.6278296873178944495275339620988
229,1.6287109677754410621280893330186
230,1.6295884073726362653548222940833
231,1.6304620394550602351605717920483
232,1.6313318969359309909249852741729
233,1.6321980123035447639473978954650
234,1.6330604176285632053967092891124
235,1.6339191445711406048019105365406
236,1.6347742243879008178354076780388
237,1.6356256879387675234994850369966
238,1.6364735656936495417099651825852
239,1.6373178877389866468398366658426
240,1.6381586837841580306219285086996
241,1.6389959831677576957409408494534
242,1.6398298148637396360462268317280
243,1.6406602074874368341393367246495
244,1.6414871893014557645529061555751
245,1.6423107882214507756117935397249
246,1.6431310318217808685240353962715
247,1.6439479473410502554666669233314
248,1.6447615616875402772001633144737
249,1.6455719014445276487062863927423
250,1.6463789928754994169492291163316
251,1.6471828619292625301661879907159
252,1.6479835342449508165813332823095
253,1.6487810351569344441404498015847
254,1.6495753896996315175173807854050
255,1.6503666226122256918156816467956
256,1.6511547583432898877263320249270
257,1.6519398210553224988798066282312
258,1.6527218346291925354452840472440
259,1.6535008226685005068214385649205
260,1.6542768085038554291171475162899
261,1.6550498151970682704731872722976
262,1.6558198655452665589509675967372
263,1.6565869820849290028688512654692
264,1.6573511870958455737378812037048
265,1.6581125026050015763233149180824
266,1.6588709503903878728625885857593
267,1.6596265519847404739706394206827
268,1.6603793286792095292300739917925
269,1.6611293015269619866635119332169
270,1.6618764913467136445111906449444
271,1.6626209187261998785483762618218
272,1.6633626040255790237848875289691
273,1.6641015673807758529392804504900
274,1.6648378287067623599832887461685
275,1.6655714077007797236137002816624
276,1.6663023238454997282819948994471
277,1.6670305964121331260731098097655
278,1.6677562444634766933587881987570
279,1.6684792868569104846713984005905
280,1.6691997422473373766455985922261
281,1.6699176290900727908323546335457
282,1.6706329656436820916349856872757
283,1.6713457699727688717950422024416
284,1.6720560599507112819442755078127
285,1.6727638532623532114653707791238
286,1.6734691674066463453873166165193
287,1.6741720196992481565883257249757
288,1.6748724272750722350636912395427
289,1.6755704070907956023038544395101
290,1.6762659759273237432915172010932
291,1.6769591503922111970394945729350
292,1.6776499469220405905569079366927
293,1.6783383817847640219997688591978
294,1.6790244710820018299021275172554
295,1.6797082307513008356133853801457
296,1.6803896765683596444834846498449
297,1.6810688241492109375021219939749
298,1.6817456889523700701241126925102
299,1.6824202862809467811178058939768
300,1.6830926312847217620209935028034
301,1.6837627389621884986204944660994
302,1.6844306241625624773670038848333
303,1.6850963015877549298326055121407
304,1.6857597857943146927186737571515
305,1.6864210911953396119196151473979
306,1.6870802320623567538403574795759
307,1.6877372225271686059197695477445
308,1.6883920765836727447869227805008
309,1.6890448080896510613143375006452
310,1.6896954307685288777128059627589
311,1.6903439582111075515695499689010
312,1.6909904038772680799606076285982
313,1.6916347810976470963846077519837
314,1.6922771030752870647904187626416
315,1.6929173828872599903402115143739
316,1.6935556334862660225484700700839
317,1.6941918677022044894008364271288
318,1.6948260982437227136960015799616
319,1.6954583376997397531717903809274
320,1.6960885985409450656720385833740
321,1.6967168931212760182875250755576
322,1.6973432336793703549006486791556
323,1.6979676323399971361714064358197
324,1.6985901011154651291035920003196
325,1.6992106519070104081705184128731
326,1.6998292965061614052259317001493
327,1.7004460465960842289537838107787
328,1.7010609137529054430511740135134
329,1.7016739094470172780009560647628
330,1.7022850450443617080992210072605
331,1.7028943318076948323125403670609
332,1.7035017808978326201877103707894
333,1.7041074033748784013503684754139
334,1.7047112101994302825967421563665
335,1.7053132122337728074919280333176
336,1.7059134202430489165072364309055
337,1.7065118448964150799234146713032
338,1.7071084967681806623322752668153
339,1.7077033863389275832248212074591
340,1.7082965239966163649867452462665
341,1.7088879200376742818597599720199
342,1.7094775846680681069987932871646
343,1.7100655280043610953953440240870
344,1.7106517600747541963543557183411
345,1.7112362908201133148400135342548
346,1.7118191300949800964657941310315
347,1.7124002876685698014683083125376
348,1.7129797732257530793699240644424
349,1.7135575963680251892351680208186
350,1.7141337666144602078429671806848
351,1.7147082934026523133589927206289
352,1.7152811860896438268548164392921
353,1.7158524539528392960333501683754
354,1.7164221061909070356183460932807
355,1.7169901519246684896736765918121
356,1.7175566001979736256229205613512
357,1.7181214599785655989961887205244
358,1.7186847401589339328936343659003
359,1.7192464495571519572931912145087
360,1.7198065969177074461111352181393
361,1.7203651909123181968731550299797
362,1.7209222401407390345863167405428
363,1.7214777531315548354144402457740
364,1.7220317383429645941411969287379
365,1.7225842041635547717788200849749
366,1.7231351589130608009826928264894
367,1.7236846108431196412734894848490
368,1.7242325681380101727875251765130
369,1.7247790389153860610923945595155
370,1.7253240312269968062355637811520
371,1.7258675530593998293272483997610
372,1.7264096123346625531296093861450
373,1.7269502169110544433608965731201
374,1.7274893745837333191867352931364
375,1.7280270930854166244619285811610
376,1.7285633800870491159313932598309
377,1.7290982431984587575947783685607
378,1.7296316899690039886388209249707
379,1.7301637278882142047336407059316
380,1.7306943643864202094505122363341
381,1.7312236068353775112310886492486
382,1.7317514625488795840711103751685
383,1.7322779387833657665738942849299
384,1.7328030427385187630676610172616
385,1.7333267815578553680349849120943
386,1.7338491623293110724996227050682
387,1.7343701920858143016992258637302
388,1.7348898778058542208348956330978
389,1.7354082264140427835733188064258
390,1.7359252447816682123990161932804
391,1.7364409397272402277462709588918
392,1.7369553180170306342777629447128
393,1.7374683863656067377851308459628
394,1.7379801514363561737964347174509
395,1.7384906198420060047522311991141
396,1.7389997981451357366049346044502
397,1.7395076928586838847380079669237
398,1.7400143104464480973262090162633
399,1.7405196573235774019160102304365
400,1.7410237398570608751707196954105
401,1.7415265643662087846874617721805
402,1.7420281371231269480894251627753
403,1.7425284643531871301200192427925
404,1.7430275522354913708159458511517
405,1.7435254069033277101907890388373
406,1.7440220344446234184512351540253
407,1.7445174409023928484520277626133
408,1.7450116322751774135712078035882
409,1.7455046145174805520685566058146
410,1.7459963935402001923935388052118
411,1.7464869752110529794461373877399
412,1.7469763653549938443677262386387
413,1.7474645697546319969075627668705
414,1.7479515941506397641978748423403
415,1.7484374442421585598863174791019
416,1.7489221256871984132460466774574
417,1.7494056441030339067368481461459
418,1.7498880050665936852408789863787
419,1.7503692141148478154714741352376
420,1.7508492767451879774639036307858
421,1.7513281984158044403190700812940
422,1.7518059845460591037894251453922
423,1.7522826405168524418342870485180
424,1.7527581716709879618561603134597
425,1.7532325833135305589644864784139
426,1.7537058807121623720938346295405
427,1.7541780690975336265924391938577
428,1.7546491536636084769549462132261
429,1.7551191395680097620728171670015
430,1.7555880319323555350934250762572
431,1.7560558358425948715277522035230
432,1.7565225563493401051054434823991
433,1.7569881984681908292591210798609
434,1.7574527671800607621594178318612
435,1.7579162674314952989587277859048
436,1.7583787041349876522179987827428
437,1.7588400821692917418690176135589
438,1.7593004063797308167597040013758
439,1.7597596815785024890693641779771
440,1.7602179125449812527893978718589
441,1.7606751040260156461044209994501
442,1.7611312607362236213012919167045
443,1.7615863873582857698833679626499
444,1.7620404885432310222405499560208
445,1.7624935689107241525157273480350
446,1.7629456330493461129956489429107
447,1.7633966855168743671750984797566
448,1.7638467308405564396754007877111
449,1.7642957735173845235001724335282
450,1.7647438180143632970486577579480
451,1.7651908687687784539588516314175
452,1.7656369301884587871067236019858
453,1.7660820066520375698107657545229
454,1.7665261025092096231679858821100
455,1.7669692220809876933707175653888
456,1.7674113696599534359796017299549
457,1.7678525495105077028362157495753
458,1.7682927658691165274875611819714
459,1.7687320229445553230229160668337
460,1.7691703249181509346415111738161
461,1.7696076759440193966504131379031
462,1.7700440801493026069179765927939
463,1.7704795416344025225285387374855
464,1.7709140644732110375179536466937
465,1.7713476527133395113994046618525
466,1.7717803103763450791502679818100
467,1.7722120414579530231493702356337
468,1.7726428499282802226784955703697
469,1.7730727397320521576578721560904
470,1.7735017147888209911290989480771
471,1.7739297789931789975637689968532
472,1.7743569362149716345823017072693
473,1.7747831902995056089566546723957
474,1.7752085450677594408615255425604
475,1.7756330043165854491003336012001
476,1.7760565718189156710814069390603
477,1.7764792513239620505109153052279
478,1.7769010465574155687604181689824
479,1.7773219612216432092622184960039
480,1.7777419989958831494819044753604
481,1.7781611635364367313104730990566
482,1.7785794584768607786305993553304
483,1.7789968874281556420202844515802
484,1.7794134539789517903144515215345
485,1.7798291616956964258659456353046
486,1.7802440141228347082633034506076
487,1.7806580147829924352510951822992
488,1.7810711671771547773023232839373
489,1.7814834747848442939044657621350
490,1.7818949410642960945646798258853
491,1.7823055694526322786954205128870
492,1.7827153633660342424430435228900
493,1.7831243261999128273424180612172
494,1.7835324613290774047088700271750
495,1.7839397721079020881330938515435
496,1.7843462618704923183670714272089
497,1.7847519339308475059879566699991
498,1.7851567915830236769543555959337
499,1.7855608381012936182385738589810
500,1.785964076740306653862641265910
501,1.786366510735243797206418802415
502,1.786768143301975734592084695739
503,1.787168977637215108092534379801
504,1.787569016918670941218403248582
505,1.787968264305198054763526470633
506,1.788366722936947202706074540590
507,1.788764395935513775998509000848
508,1.789161286404084714008955451404
509,1.789557397427581854303024065577
510,1.789952732072807773797207761338
511,1.790347293388587352155747850087
512,1.790741084405908957416553240442
513,1.791134108138063869374515091218
514,1.791526367580784616975628832854
515,1.791917865712382603811227102321
516,1.792308605493883231892087452522
517,1.792698589869159598284079077605
518,1.793087821765066549835612316425
519,1.793476304091571877784803626009
520,1.793864039741887509094871070858
521,1.794251031592597489591217226516
522,1.794637282503787034947382832266
523,1.795022795319169086522771607492
