Eigenstate,Potential Energy
1,0.500000000040869312212356775360000954
2,0.64623093791788819581385080707612192
3,0.73633761048860135090929721501280577
4,0.79966527944644144702103541383239619
5,0.8480465781129943497939989862165991
6,0.8870660012452648079190578357437753
7,0.9197208302825208179689597352574216
8,0.9477838516022924483908615914896820
9,0.9723835642112044149029772190012013
10,0.9942802222580522276809940737397759
11,1.0140093958840317236867961599001598
12,1.0319621803938912943266702494861383
13,1.0484327058535348963709805126809748
14,1.0636476699461900329567557691553433
15,1.0777854537865965310385207180869274
16,1.090988926791454118591341311110197
17,1.103374280140928493448902058114548
18,1.115037277784852036201517157178574
19,1.126057779546702356304843648477337
20,1.136503078757539435196022363531833
21,1.146430408337703338843428865982786
22,1.155888851955554762374033635400588
23,1.164920821964000005367500671993245
24,1.173563216800913382783390280138893
25,1.181848337785063816907421380398575
26,1.189804622923702749258502987618477
27,1.197457239875140107453474798200062
28,1.204828569307784251005935578285462
29,1.211938602102093997205770509846039
30,1.218805268192403257989925404520497
31,1.225444710699640317964741810854816
32,1.231871515928064198532243181823528
33,1.238098907489492748596259285664433
34,1.244138911067950835922019922226093
35,1.250002494998471947351552838054361
36,1.255699690800307627409600024649861
37,1.261239697000714636237289106728006
38,1.266630968955070964593679673336229
39,1.271881296871223194108117400671508
40,1.276997873850146907393340202652498
41,1.281987355438251578888374904616123
42,1.286855911931668775780780822101677
43,1.291609274466376153431442770583739
44,1.296252775759915714214057495126379
45,1.300791386232895229679782694955105
46,1.305229746125325443361083065363862
47,1.309572194129369059195447762123077
48,1.313822792982491156300548485119008
49,1.317985352400338126935286518367903
50,1.32206344967454952082768579946675
51,1.32606044821524021657805991665877
52,1.32997951427954512654643422917350
53,1.33382363209516852308731715841660
54,1.33759561756031894253889262423498
55,1.34129813067793513086197289385703
56,1.34493368686203392469903915639923
57,1.34850466723681199650478877647210
58,1.35201332803433620610892321325251
59,1.35546180918390335379670125778147
60,1.35885214217512562229084035816634
61,1.36218625726723376751375042518506
62,1.36546599010878911289581522164295
63,1.36869308782475351297490081758539
64,1.37186921462155397211025954736299
65,1.37499595695524376416133022395695
66,1.37807482830301455992779904861565
67,1.38110727357405177782158884882436
68,1.38409467319196921243287270786189
69,1.38703834687774632492555371694017
70,1.38993955715916331093342193323384
71,1.39279951263013035789737926582344
72,1.39561937098100926140396775583273
73,1.39840024181897256368221621532236
74,1.40114318929562652886283527625320
75,1.40384923455749316850089563041385
76,1.40651935803349697410771088016876
77,1.40915450157229961501965509444981
78,1.41175557044116006175131899215851
79,1.41432343519695077498816968444400
80,1.41685893343902247472933728185204
81,1.41936287145276066261461794077669
82,1.42183602575191561991611090981675
83,1.42427914452709886988527428821184
84,1.42669294900721480142999981601364
85,1.42907813474003687492259750030156
86,1.43143537279762196555017855114680
87,1.43376531091179892881913007487447
88,1.43606857454454409508952765112359
89,1.43834576789767289785387887127186
90,1.44059747486593362374524006071490
91,1.44282425993726782020913872232380
92,1.44502666904371359923440939489885
93,1.44720523036616582048257679994046
94,1.44936045509596420841718630462891
95,1.45149283815605930400553980337312
96,1.45360285888430432944873296346182
97,1.45569098168123670228648298497412
98,1.45775765662454006092824076327288
99,1.45980332005222419147325309932751
100,1.46182839511641390526589332456595
101,1.46383329230950861247830314847798
102,1.46581840996434876229119021028314
103,1.46778413472991740663071395395120
104,1.46973084202399787970923184692565
105,1.47165889646411551186037335658648
106,1.47356865227800053191557490767421
107,1.47546045369473123041358422509548
108,1.47733463531763721638010946551424
109,1.47919152247997400688073526900412
110,1.48103143158431776842496861911364
111,1.48285467042656316810097738907630
112,1.48466153850535785868698367582436
113,1.48645232731775158619123791403817
114,1.48822732064178915051621022553807
115,1.48998679480673600144003515154269
116,1.49173101895157692046003963560458
117,1.49346025527239652603646645279429
118,1.49517475925920930866881948707030
119,1.49687477992277318852121016115230
120,1.49856056001189474607794945513616
121,1.50023233622169600906634382525647
122,1.50189033939329376575111243235754
123,1.50353479470531018177266182557650
124,1.50516592185761581789287329234947
125,1.50678393524767657974901223825001
126,1.50838904413986093341877602725642
127,1.50998145282804314271310310830779
128,1.51156136079181569692356955067330
129,1.51312896284661202451300479906279
130,1.51468444928802220637079268142038
131,1.51622800603056899813617201481305
132,1.51775981474119649389234494735033
133,1.51928005296771198194973556910556
134,1.52078889426241026747847684355987
135,1.52228650830109162840747482233516
136,1.52377306099768088347684087846981
137,1.52524871461464174338742876949388
138,1.52671362786936700400011112508033
139,1.52816795603672303463225729652291
140,1.52961185104791156853030468874873
141,1.53104546158580724510753294485610
142,1.53246893317692128026915590661946
143,1.53388240828013299097738615749174
144,1.53528602637232372057241989091123
145,1.53667992403104352360590350759565
146,1.53806423501433310019280171762528
147,1.53943909033781526692154160295174
148,1.54080461834917129332889494482610
149,1.54216094480010390487193159904111
150,1.54350819291589059325203164350769
151,1.54484648346262314832256541182869
152,1.54617593481222371072667264223690
153,1.54749666300532629493545550143133
154,1.54880878181210768190452611418230
155,1.55011240279114591731738355276920
156,1.55140763534638428175404463347243
157,1.55269458678227177936296130532251
158,1.55397336235715196311234142727024
159,1.5552440653349637694286520459729
160,1.5565067970353206997345315299422
161,1.5577616568820268449796155161266
162,1.5590087424500892142382092171995
163,1.5602481495112812206454897277784
164,1.5614799720783119612401360527572
165,1.5627043024476498909034082301505
166,1.5639212312410514059560724541379
167,1.5651308474458415697052497150010
168,1.5663332384539896688275678249441
169,1.5675284901000246626515078606273
170,1.5687166866978302684278785050185
171,1.5698979110763598770214609828152
172,1.5710722446143091656548300484545
173,1.5722397672737818100076193907419
174,1.5734005576329841391582238563282
175,1.5745546929179827182736404399748
176,1.5757022490335545653730414220235
177,1.5768433005931632626754726601832
178,1.5779779209480901169005950846228
179,1.5791061822157468134411913933690
180,1.5802281553072005107792163578291
181,1.5813439099539340237043140714535
182,1.5824535147338687906930984318025
183,1.5835570370966736746959177065580
184,1.5846545433883838388399911351084
185,1.5857460988753515051451690175596
186,1.5868317677675495648439091815752
187,1.5879116132412518407761798013172
188,1.5889856974611054381457470934636
189,1.5900540816016189146983555222042
190,1.5911168258680819213686943850357
191,1.5921739895169355359170908084583
192,1.5932256308756096717274246480138
193,1.5942718073618458655818615351813
194,1.5953125755025187851625661014655
195,1.5963479909519743886055606549204
196,1.5973781085098984279731385678077
197,1.5984029821387296719314186404030
198,1.5994226649806320095777569773347
199,1.6004372093740382692371255207845
200,1.6014466668697796923919839722277
201,1.6024510882468120391280185117096
202,1.6034505235275517012110552795060
203,1.6044450219928324774805324449676
204,1.6054346321964946264251367428798
205,1.6064194019796161612561302954801
206,1.6073993784843994061795377067327
207,1.6083746081677186844961707394510
208,1.6093451368143433599384476190756
209,1.6103110095498419740752902842980
210,1.6112722708531789753884152251460
211,1.6122289645690113989803489461363
212,1.6131811339196957240404238363653
213,1.6141288215170092869610386040798
214,1.6150720693736012257916655894973
215,1.6160109189141721622599041142880
216,1.6169454109863965758140884161476
217,1.6178755858715918287274620694187
218,1.6188014832951428147111228736670
219,1.6197231424366855039692583023317
220,1.6206406019400618928215178606334
221,1.6215538999230442601799075890320
222,1.6224630739868459282427517024590
223,1.6233681612254120882342641927065
224,1.6242691982345057504847860293327
225,1.6251662211205913753916934076689
226,1.6260592655095197231985569553620
227,1.6269483665550225654360613906835
228,1.6278335589470190682214403129012
229,1.6287148769197409995562533998395
230,1.6295923542596814468563298451818
231,1.6304660243133688339734972131730
232,1.6313359199949766466185868632252
233,1.6322020737937638516794847248460
234,1.6330645177813621564888865898637
235,1.6339232836189032791306064386965
236,1.6347784025639959285413363001142
237,1.6356299054775561145235820508361
238,1.6364778228304925186687080124534
239,1.6373221847102523617581958660362
240,1.6381630208272299210477042415876
241,1.6390003605210419787691623071866
242,1.6398342327666730577877706552946
243,1.6406646661804944751738496355392
244,1.6414916890261589019110062524774
245,1.6423153292203748018375641865113
246,1.6431356143385632683744578235334
247,1.6439525716203986408101173757134
248,1.6447662279752404806822670677726
249,1.6455766099874518767569873650254
250,1.6463837439216144627111937814947
251,1.6471876557276380469303699004068
252,1.6479883710457676523220902131560
253,1.6487859152114930377481234551599
254,1.6495803132603603573332201442607
255,1.6503715899326898370796456854924
256,1.6511597696781995535554768724840
257,1.6519448766605417054008185321538
258,1.6527269347617478217115145367620
259,1.6535059675865897101514208824504
260,1.6542819984668565304984511053909
261,1.6550550504655483066822478858775
262,1.6558251463809906020462237232117
263,1.6565923087508692077218059885171
264,1.6573565598561902942736085595545
265,1.6581179217251645511490693033892
266,1.6588764161370174809706624083873
267,1.6596320646257290612087037299493
268,1.6603848884837028062397095143780
269,1.6611349087653684989956184016607
270,1.6618821462907143156338058577051
271,1.6626266216487576264708397758814
272,1.6633683552009484520298398056411
273,1.6641073670845130166018596245183
274,1.6648436772157346076250159840793
275,1.6655773052931756157466825214583
276,1.6663082708008390332072163664612
277,1.6670365930112768938450880236412
278,1.6677622909886374086570097238889
279,1.6684853835916622993677859202276
280,1.6692058894766264228657895635118
281,1.6699238271002275753174036767822
282,1.6706392147224239722188608223763
283,1.6713520704092226168223210273838
284,1.6720624120354157134616948279849
285,1.6727702572872719330301090666266
286,1.6734756236651785553437883802483
287,1.6741785284862395476754274982850
288,1.6748789888868259812234369231285
289,1.6755770218250834335722784909800
290,1.6762726440833971096627926233984
291,1.6769658722708125222036252989421
292,1.6776567228254146164220144127902
293,1.6783452120166692449198137644217
294,1.6790313559477220295415397673532
295,1.6797151705576566973902280846463
296,1.6803966716237204765439078897389
297,1.6810758747635064831890328746641
298,1.6817527954371024169144292635345
299,1.6824274489492023670133431562255
300,1.6830998504511834803894083267748
301,1.6837700149431479024939448112320
302,1.6844379572759320842178996144136
303,1.6851036921530806278569952194847
304,1.6857672341327882496701919973772
305,1.6864285976298112875484110538296
306,1.6870877969173480170038297562649
307,1.6877448461288849574438960732559
308,1.6883997592600166471697109408339
309,1.6890525501702349763753785756821
310,1.6897032325846884133055812718450
311,1.6903518200959147184861466097535
312,1.6909983261655446601719583593990
313,1.6916427641259781237718535060566
314,1.6922851471820344195371782033662
315,1.6929254884125761081688994120737
316,1.6935638007721077199975607368002
317,1.6942000970923469063540526427245
318,1.6948343900837733743887074967852
319,1.6954666923371527469141226338694
320,1.6960970163250353485427744480974
321,1.6967253744032338370676542302510
322,1.6973517788122757945307413818489
323,1.6979762416788347920314761249412
324,1.6985987750171389054302456772624
325,1.6992193907303584439412277637904
326,1.6998381006119711288562946067549
327,1.7004549163471075431696964175441
328,1.7010698495138740413140459626211
329,1.7016829115846580938803868163911
330,1.7022941139274124990045306847662
331,1.7029034678069198990113703376877
332,1.7035109843860386635567673688764
333,1.7041166747269305178212439720869
334,1.7047205497922680997769463827370
335,1.7053226204464267614596077061677
336,1.7059228974566566722955471916381
337,1.7065213914942380967294211791664
338,1.7071181131356209050036467176104
339,1.7077130728635443815963313308080
340,1.7083062810681434226579487175824
341,1.7088977480480368360247087380615
342,1.7094874840114002409580241134561
343,1.7100754990770232054004268163125
344,1.7106618032753506144556680587763
345,1.7112464065495100894287625533623
346,1.7118293187563229322222979844174
347,1.7124105496673021604493447154508
348,1.7129901089696344449894942053948
349,1.7135680062671494949149432009668
350,1.7141442510812744321302112684992
351,1.7147188528519752433327881909172
352,1.7152918209386849916628504258685
353,1.7158631646212180724260774864925
354,1.7164328931006719273690902419572
355,1.7170010155003165827979478729764
356,1.7175675408664702213334171820047
357,1.7181324781693640263547251600398
358,1.7186958363039955431456318265612
359,1.7192576240909663018955644613919
360,1.7198178502773126404893355651362
361,1.7203765235373214719695208290592
362,1.7209336524733374782871838841472
363,1.7214892456165563259706266611444
364,1.7220433114278089277225933959381
365,1.7225958582983349863319526552650
366,1.7231468945505446985869333462524
367,1.7236964284387715112198637359494
368,1.7242444681500127176329976867057
369,1.7247910218046625279705352824225
370,1.7253360974572333257343363941380
371,1.7258797030970679642740812845904
372,1.7264218466490420596544487947675
373,1.7269625359742562466379230651912
374,1.7275017788707227062870172253910
375,1.7280395830740366567803818997316
376,1.7285759562580442636833858625609
377,1.7291109060354987589107043422185
378,1.7296444399587079358169154843638
379,1.7301765655201748602455662936763
380,1.7307072901532285543277392839457
381,1.7312366212326475284942456604817
382,1.7317645660752732799001931034180
383,1.7322911319406184319515356117085
384,1.7328163260314644786646445783956
385,1.7333401554944527551431559286417
386,1.7338626274206692928542370810626
387,1.7343837488462193090711434660883
388,1.7349035267527952673101541332878
389,1.7354219680682391834772686813124
390,1.7359390796670963668608323073474
391,1.7364548683711609129403395253411
392,1.7369693409500165564181654159338
393,1.7374825041215703579911585303484
394,1.7379943645525778059887216396053
395,1.7385049288591621897812067326821
396,1.7390142036073278958569820726688
397,1.7395221953134672565078136336369
398,1.7400289104448609592884794061023
399,1.7405343554201705830747574878494
400,1.7410385366099275607102838148704
401,1.7415414603370146171955749647550
402,1.7420431328771404286698976525276
403,1.7425435604593103229608632178290
404,1.7430427492662909148271141320655
405,1.7435407054350661413751511940592
406,1.7440374350572908067227978597400
407,1.7445329441797387526663119017947
408,1.7450272388047431585841619770523
409,1.7455203248906318316937032728284
410,1.7460122083521600021797270223977
411,1.7465028950609348832528287507677
412,1.7469923908458355787698233789288
413,1.7474807014934294175182548074401
414,1.7479678327483811380534518423626
415,1.7484537903138592080967112535863
416,1.7489385798519357081715096489074
417,1.7494222069839826280122635420188
418,1.7499046772910617390289881766311
419,1.7503859963143123213879840724977
420,1.7508661695553317276804068154230
421,1.7513452024765527354124662613230
422,1.7518231005016169699714145340506
423,1.7522998690157422342605483088708
424,1.7527755133660873587811464271481
425,1.7532500388621109515742742844855
426,1.7537234507759276549206439366831
427,1.7541957543426593934822548756924
428,1.7546669547607816276319288824993
429,1.7551370571924685244158786232953
430,1.7556060667639299083145146535478
431,1.7560739885657474955136251735673
432,1.7565408276532075612642309247829
433,1.7570065890466253782868982615247
434,1.7574712777316725242213909750709
435,1.7579348986596948818599596593368
436,1.7583974567480292332180950045197
437,1.7588589568803166088790081347709
438,1.7593194039068113747416443119002
439,1.7597788026446867375445442883388
440,1.7602371578783377404483060071411
441,1.7606944743596789085978263286462
442,1.7611507568084401083836889309301
443,1.7616060099124602681673245307370
444,1.7620602383279735799160651656891
445,1.7625134466798975124811127559623
446,1.7629656395621136609418589972308
447,1.7634168215377486012627364362217
448,1.7638669971394479685427296137796
449,1.7643161708696515994405807348155
450,1.7647643472008618912971732610326
451,1.7652115305759128811332270855731
452,1.7656577254082328859519434525320
453,1.7661029360821064475053185287432
454,1.7665471669529319705575768335127
455,1.7669904223474786786075814453784
456,1.7674327065641381841582024068837
457,1.7678740238731753693304816719747
458,1.7683143785169749728126892178791
459,1.7687537747102863971631296766361
460,1.7691922166404663789067446470441
461,1.7696297084677173712473088044659
462,1.7700662543253248525463923304532
463,1.7705018583198921644419485451795
464,1.7709365245315710406161942173837
465,1.7713702570142917950534920174308
466,1.7718030597959903005942744744695
467,1.7722349368788310384094094617849
468,1.7726658922394312341499673136920
469,1.7730959298290785575823944325951
470,1.7735250535739499103655603418756
471,1.7739532673753255691969433456424
472,1.7743805751098029820597775478380
473,1.7748069806295055685971213494723
474,1.7752324877622940287314570314419
475,1.7756571003119690824151234258388
476,1.7760808220584781544448127670292
477,1.7765036567581163374709777527700
478,1.7769256081437263093266349201646
479,1.7773466799248960941951902648407
480,1.7777668757881550623408363039863
481,1.7781861993971667194190213057241
482,1.7786046543929218542968939928030
483,1.7790222443939274255332669402785
484,1.7794389729963940064186595660041
485,1.7798548437744232656088999687653
486,1.7802698602801900682978190850498
487,1.7806840260441260468729979828105
488,1.7810973445750992377011083210307
489,1.7815098193605930123068337601916
490,1.7819214538668821661585187430973
491,1.7823322515392082994289523753237
492,1.7827422158019530780111146786980
493,1.7831513500588093498868631958035
494,1.7835596576929512109834049422259
495,1.7839671420672012131084073512322
496,1.7843738065241979584838166993336
497,1.7847796543865597664961469431522
498,1.7851846889570483580214415149383
499,1.7855889135187300547482206431579
500,1.785992331335136624076135465960
501,1.786394945650421515711615079628
502,1.786796759689518945221143366219
503,1.787197776658297292753677173244
504,1.787597999743714660853400110991
505,1.787997432113969438916309214863
506,1.788396076918651604464560444496
507,1.788793937288892609355744121500
508,1.789191016337513490978955251143
509,1.789587317159169439418950462447
510,1.789982842830496873921856525109
511,1.790377596410256259838395869536
512,1.790771580939474566342873787718
513,1.791164799441585980773024563800
514,1.791557254922571556170064446620
515,1.791948950371098166437083729987
516,1.792339888758654979631441462046
517,1.792730073039688524319303304185
518,1.793119506151738134570168525992
519,1.793508191015568555737872840355
520,1.793896130535302568239964223399
521,1.794283327598550424781157200024
522,1.794669785076540377446497968760
523,1.795055505824246732053449022036
