Eigenstate,Potential Energy
1,0.500000000033222763931735018557904582
2,0.64623093786797544821047607413524701
3,0.73633761034198638432689571612598380
4,0.79966527914105836243683466611919217
5,0.8480465775840064778811175126594861
6,0.8870660004266995714051398420324064
7,0.9197208291078720134130025716377750
8,0.9477838500047713406875567201071472
9,0.9723835621238564212347748876013640
10,0.9942802196138160704593226186575509
11,1.0140093926157715004172892316659215
12,1.0319621764344147462480705658357058
13,1.0484327011356041635526938214028620
14,1.0636476644025280852380524591759266
15,1.0777854473498909901786696974108295
16,1.090988919394359441596937936513145
17,1.103374271716067089753519037529430
18,1.115037268264814669741622295705866
19,1.126057768864048054870056020379061
20,1.136503066844795052068506820517555
21,1.146430395127362863755688406331097
22,1.155888837380078448214066711096937
23,1.164920805955813357055472812117134
24,1.173563199292406041369727892674417
25,1.181848318708588362817739066858028
26,1.189804602211573442269849590165619
27,1.197457217459631576505090736586866
28,1.204828545121130143731488234654131
29,1.211938576076485596732818413075013
30,1.218805240259988072825697637970723
31,1.225444680792520649498408241990524
32,1.231871483978295689710892749932792
33,1.238098873429082916589630090311026
34,1.244138874828857591019419326905183
35,1.250002456512602099890100832002885
36,1.255699649999515384184696289720595
37,1.261239653816800087571017149037241
38,1.266630923319778563017817386646353
39,1.271881248716240225442821504875313
40,1.276997823107101954860816818398630
41,1.281987302038712980785765930816726
42,1.286855855807143077142424797070663
43,1.291609215548306552033405691572221
44,1.296252713979680501209976619410385
45,1.300791321521806225104065007835096
46,1.305229678414626426691239690222848
47,1.309572123350234195128268513448495
48,1.313822719066023415865561415729755
49,1.317985275277567704042526003328276
50,1.32206336927643224432434106269848
51,1.32606036447265595786940162672427
52,1.32997942712329620282003652273097
53,1.33382354145597809616547223062761
54,1.33759552336882941337195087628350
55,1.34129803286470652966479055677293
56,1.34493358535754229672355352444549
57,1.34850456197144778343375227231467
58,1.35201321893840262304878770355697
59,1.35546169618761476184154303071968
60,1.35885202520860589662373065177847
61,1.36218613626051466100721451639376
62,1.36546586499180861516872414944209
63,1.36869295852735420485934125188110
64,1.37186908107348137547854369003746
65,1.37499581908614468706020382861995
66,1.37807468604243543696419410513428
67,1.38110712685143700574173977520019
68,1.38409452193665948083437126288245
69,1.38703819101897694203981048216432
70,1.38993939662606252441417628356505
71,1.39279934735171767054907817035922
72,1.39561920088619374178230230391396
73,1.39840006683655115149755786622743
74,1.40114300935428233511596683474623
75,1.40384904958579377027910367710137
76,1.40651916795989270396813577586333
77,1.40915430632512184488560372271505
78,1.41175536994861948124619739455714
79,1.41432322938713566413063470388836
80,1.41685872223989697091232784985103
81,1.41936265479216302178994433825872
82,1.42183580355755647190541283917213
83,1.42427891672655946773726752425842
84,1.42669271552794526474311566156406
85,1.42907789550935442705128531260412
86,1.43143512774270916461235882251048
87,1.43376505995970189242151206902973
88,1.43606831762217071868674095902320
89,1.43834550493179106665663074497344
90,1.44059720578316941809199609021132
91,1.44282398466410371431505577340394
92,1.44502638750648665323059628685902
93,1.44720494249106586565801249067671
94,1.44936016080903202557494240191942
95,1.45149253738318479484423989084115
96,1.45360255155122468087952191896704
97,1.45569066771353454359504907645652
98,1.45775733594764161369078379503698
99,1.45980299259139741213456216791398
100,1.46182806079676662028705196630772
101,1.46383295105598664596080622717636
102,1.46581806170173405598359269345045
103,1.46778377938282613222325205051218
104,1.46973047951687854332108287803219
105,1.47165852672124705062363216833660
106,1.47356827522349040255921756166626
107,1.47546006925251348975004705833588
108,1.47733424341147059359636724210597
109,1.47919112303343996753503976725415
110,1.48103102452081857004970460153570
111,1.48285425566931990731133342672387
112,1.48466111597740850969443524781817
113,1.48645189694194903062005723174079
114,1.48822688234079919842049099733933
115,1.48998634850303540341794602817574
116,1.49173056456745137076127871797049
117,1.49345979272993865655804964432287
118,1.49517428848031667373371171634068
119,1.49687430082914624033332682583318
120,1.49856007252503480074633194169453
121,1.50023184026290320309058203387032
122,1.50188983488366500285915725929861
123,1.50353428156573707000143078002604
124,1.50516540000878259680116745055020
125,1.50678340461005803765147161188485
126,1.50838850463372031452867361874140
127,1.50998090437343004408098875463946
128,1.51156080330856395505787874433828
129,1.51312839625433759156782600651529
130,1.51468387350612101578516456122564
131,1.51622742097821481960836334292241
132,1.51775922033733877757158846063579
133,1.51927944913107369172705059596689
134,1.52078828091148570325727348252629
135,1.52228588535414423723359022170141
136,1.52377242837274105940683744849816
137,1.52524807222950461597290099674280
138,1.52671297564159021526489445581308
139,1.52816729388362450441827919759430
140,1.52961117888656724808694249299876
141,1.53104477933304885879831719143099
142,1.53246824074933405526855221543684
143,1.53388170559405337482944512878097
144,1.53528531334383708648195206778592
145,1.53667920057598186333180416192648
146,1.53806350104827270441214745612936
147,1.53943834577607439293184046289792
148,1.54080386310680781995486696166713
149,1.54216017879191297444208061873184
150,1.54350741605640224050915009304543
151,1.54484569566609991613107113616527
152,1.54617513599265825243863736530460
153,1.54749585307643896327595160040798
154,1.54880796068734410423576668480741
155,1.55011157038367455713990520022585
156,1.55140679156909398630193430394238
157,1.55269373154776931314900700207109
158,1.55397249557775952727763256123933
159,1.5552431869227165067499658792904
160,1.5565059069019641851415373876833
161,1.5577607549390145614326275580707
162,1.5590078286085800138159356472492
163,1.5602472236821367706909686993230
164,1.5614790341720941754115427777193
165,1.5627033523746183449752494355722
166,1.5639202689111607382147833669781
167,1.5651298727687388657819208037846
168,1.5663322513390118308090195502132
169,1.5675274904561957623096624487684
170,1.5687156744338588844057682469421
171,1.5698968861006364158128782004065
172,1.5710712068349031662131208458089
173,1.5722387165984392318176310862405
174,1.5733994939691246336039156663317
175,1.5745536161726968831323165765040
176,1.5757011591136011822656736824754
177,1.5768421974049665173009328033584
178,1.5779768043977368018801686831046
179,1.5791050522089835135979879155637
180,1.5802270117494307706755764584724
181,1.5813427527502154972586629238251
182,1.5824523437889103726960131598810
183,1.5835558523148326140434849134152
184,1.5846533446736628333008973089182
185,1.5857448861313957774760720311378
186,1.5868305408976439200662475529390
187,1.5879103721483177044253777734277
188,1.5889844420476978753023286996826
189,1.5900528117699236296085001962508
190,1.5911155415199122374600140816246
191,1.5921726905537293560135390557972
192,1.5932243171984264182653451816219
193,1.5942704788713634006273694762615
194,1.5953112320990303100284135572321
195,1.5963466325353853228638758304059
196,1.5973767349797232676582605839410
197,1.5984015933940888267252178480392
198,1.5994212609202486187677455322695
199,1.6004357898962349962356322458176
200,1.6014452318724754976026100065020
201,1.6024496376275189309435625963979
202,1.6034490571833714649248562637547
203,1.6044435398204533818911663638685
204,1.6054331340921881079121481501129
205,1.6064178878392334851024142982264
206,1.6073978482033683049135363911618
207,1.6083730616410399730251170387792
208,1.6093435739365875272412998983670
209,1.6103094302151457512219987077542
210,1.6112706749552418796495713375636
211,1.6122273520010922537890701029812
212,1.6131795045746091545659279142376
213,1.6141271752871221910508798320182
214,1.6150704061508292200372141134620
215,1.6160092385899760029371297709060
216,1.6169437134517785544493015454932
217,1.6178738710170921420349915850898
218,1.6187997510108359086474834203841
219,1.6197213926121763916455554598135
220,1.6206388344644824460135359927494
221,1.6215521146850494741722880050970
222,1.6224612708746101597413044983221
223,1.6233663401266252660774225797362
224,1.6242673590363695588827486379864
225,1.6251643637098154094187258650078
226,1.6260573897723176162612710773439
227,1.6269464723771080884376805507823
228,1.6278316462136022001387505994476
229,1.6287129455155239691436368298254
230,1.6295904040688547451877443192637
231,1.6304640552196071975304576789617
232,1.6313339318814350106292906007036
233,1.6322000665430732734109154787985
234,1.6330624912756257081906920040234
235,1.6339212377396919103263744069027
236,1.6347763371923442973597064455486
237,1.6356278204939583877583335987837
238,1.6364757181148981402537420100010
239,1.6373200601420617893400035548715
240,1.6381608762852903303343465092121
241,1.6389981958836429353316035021689
242,1.6398320479115421559860282877900
243,1.6406624609847929438765590677807
244,1.6414894633664771766736880524669
245,1.6423130829727280632013944272677
246,1.6431333473783869459434406982540
247,1.6439502838225438827611736273990
248,1.6447639192139695883586984691185
249,1.6455742801364337039922179222962
250,1.6463813928539197795259064795908
251,1.6471852833157348672421144913996
252,1.6479859771615165253025504993920
253,1.6487834997261423024593843678887
254,1.6495778760445413602702653719228
255,1.6503691308564121122423157009780
256,1.6511572886108459646687671919182
257,1.6519423734708635498984733007560
258,1.6527244093178598960934827884230
259,1.6535034197559653363216846676218
260,1.6542794281163225426850345034173
261,1.6550524574612799985370961937289
262,1.6558225305885066335180064241419
263,1.6565896700350264712904047980791
264,1.6573538980811787401302748556257
265,1.6581152367545019709016948110650
266,1.6588737078335442494488804897362
267,1.6596293328516028359388224496791
268,1.6603821331003931841547582702305
269,1.6611321296336516299405033338697
270,1.6618793432706674722213330834036
271,1.6626237945997537298386248517528
272,1.6633655039816505530435624060169
273,1.6641044915528687320450106300519
274,1.6648407772289705109100513410541
275,1.6655743807077915816772167817391
276,1.6663053214726025363156935045470
277,1.6670336187952172598247421352674
278,1.6677592917390400184016647117112
279,1.6684823591620627451273000638867
280,1.6692028397198046160195169936161
281,1.6699207518682018052620963143480
282,1.6706361138664449158618677392870
283,1.6713489437797672981650243826177
284,1.6720592594821814127523188625878
285,1.6727670786591700449584595991568
286,1.6734724188103283957453337772020
287,1.6741752972519621082050331658614
288,1.6748757311196376314535669457085
289,1.6755737373706895699636443560697
290,1.6762693327866857508490698902980
291,1.6769625339758478500256170346247
292,1.6776533573754304621397180870528
293,1.6783418192540625200245310961987
294,1.6790279357140461005828615381625
295,1.6797117226936147042265237660586
296,1.6803931959691585934173947513396
297,1.6810723711574071220198260818385
298,1.6817492637175773722006287514628
299,1.6824238889534859017171144866518
300,1.6830962620156253521815681657659
301,1.6837663979032063297221065628062
302,1.6844343114661666509557590998185
303,1.6851000174071451273846864341298
304,1.6857635302834234657278966803927
305,1.6864248645088377126974428515901
306,1.6870840343556585074215131905838
307,1.6877410539564373234705804570993
308,1.6883959373058261789179274474344
309,1.6890486982623669037029827160375
310,1.6896993505502502994462141581282
311,1.6903479077610487866218866128758
312,1.6909943833554200522241046846827
313,1.6916387906647830906776627022138
314,1.6922811428929684422708703174931
315,1.6929214531178419487564539901891
316,1.6935597342929034017657467857603
317,1.6941959992488576226448454467723
318,1.6948302606951633249608012798797
319,1.6954625312215569012436492894249
320,1.6960928232995511352259841454426
321,1.6967211492839127585182380143208
322,1.6973475214141149661545569521971
323,1.6979719518157684050516780919756
324,1.6985944525020296125250341400205
325,1.6992150353749886668467405842338
326,1.6998337122270342870761189481461
327,1.7004504947421992029224100797440
328,1.7010653944974829838385614970202
329,1.7016784229641573022088567620397
330,1.7022895915090500623007618168758
331,1.7028989113958098335616827870446
332,1.7035063937861516494890840512982
333,1.7041120497410845506158613122552
334,1.7047158902221190556217637384119
335,1.7053179260924588754894049121872
336,1.7059181681181729287440785769808
337,1.7065166269693505300097218045560
338,1.7071133132212408107203647487851
339,1.7077082373553724364805857464673
340,1.7083014097606597124030671713920
341,1.7088928407344907899875227068628
342,1.7094825404838004726779220937389
343,1.7100705191261272578743339741640
344,1.7106567866906546090940702362347
345,1.7112413531192382776038670491651
346,1.7118242282674171483054050955022
347,1.7124054219054111752207009886840
348,1.7129849437191032182891724441194
349,1.7135628033110083263886416933693
350,1.7141390102012280089097230564081
351,1.7147135738283915834747181437029
352,1.7152865035505842821555349551782
353,1.7158578086462614005572156243039
354,1.7164274983151499042328636579915
355,1.7169955816791378577030056537393
356,1.7175620677831498858579828802836
357,1.7181269655960119067779451435763
358,1.7186902840113043799679447475977
359,1.7192520318481998151442524844441
360,1.7198122178522934794877954255776
361,1.7203708506964190482316152572963
362,1.7209279389814556801804458288364
363,1.7214834912371211137741097073281
364,1.7220375159227558076870436174998
365,1.7225900214280963623312775514051
366,1.7231410160740370999314396789778
367,1.7236905081133826951828778696459
368,1.7242385057315886452224904128327
369,1.7247850170474942114585774624963
370,1.7253300501140435464367658261007
371,1.7258736129189978590531009629698
372,1.7264157133856375745954537375375
373,1.7269563593734544563320683268229
374,1.7274955586788379971292658720870
375,1.7280333190357467726714148142732
376,1.7285696481163762125021424588912
377,1.7291045535318145781020219793372
378,1.7296380428326903154163662336890
379,1.7301701235098126216405867354582
380,1.7307008029948019830312549334077
381,1.7312300886607135591834623300978
382,1.7317579878226505319488282900689
383,1.7322845077383720936604323597817
384,1.7328096556088910383702589187834
385,1.7333334385790645773584820170857
386,1.7338558637381790375718723970513
387,1.7343769381205241923318796457574
388,1.7348966687059611611143713122875
389,1.7354150624204845530899954341965
390,1.7359321261367760435340836405364
391,1.7364478666747497000487742289202
392,1.7369622908020926669765605669067
393,1.7374754052347986814936380871652
394,1.7379872166376930024808854158326
395,1.7384977316249516090471469126197
396,1.7390069567606143195734971839855
397,1.7395148985590914611874193682393
398,1.7400215634856640978032782322110
399,1.7405269579569763825208610345166
400,1.7410310883415243343418166113803
401,1.7415339609601370881241684001029
402,1.7420355820864513629939951898289
403,1.7425359579473819699548760811539
404,1.7430350947235862517875862295483
405,1.7435329985499199206864223538470
406,1.7440296755158904026698475145544
407,1.7445251316661048054869256844053
408,1.7450193730007100132170430728885
409,1.7455124054758277686421896062844
410,1.7460042350039872578734088744862
411,1.7464948674545494572527240113900
412,1.7469843086541268251228366794943
413,1.7474725643869994175284390685109
414,1.7479596403955238516987793863776
415,1.7484455423805394012773871701478
416,1.7489302760017676529379582401709
417,1.7494138468782085728763953568456
418,1.7498962605885301464222743927535
419,1.7503775226714558692853684933199
420,1.7508576386261450723660727301754
421,1.7513366139125700323185727481458
422,1.7518144539518891494763818543276
423,1.7522911641268140292864398426384
424,1.7527667497819740809834926666563
425,1.7532412162242750128711594084676
426,1.7537145687232548310576237292783
427,1.7541868125114348262818986635696
428,1.7546579527846655625263934051397
429,1.7551279947024717798099503957547
430,1.7555969433883890732748423114765
431,1.7560648039302998522287564284096
432,1.7565315813807657286637567361784
433,1.7569972807573516731563170177657
434,1.7574619070429530360929652097975
435,1.7579254651861132579031170002925
436,1.7583879601013401692968336670903
437,1.7588493966694190428844698555721
438,1.7593097797377213782497086907835
439,1.7597691141205101017881258789363
440,1.7602274045992422525316350153032
441,1.7606846559228663138195191131095
442,1.7611408728081177544696985555059
443,1.7615960599398124271530271303350
444,1.7620502219711324433495092782476
445,1.7625033635239138555524272414163
446,1.7629554891889271710769412554856
447,1.7634066035261578666503892801527
448,1.7638567110650801219922719387499
449,1.7643058163049316128973626461205
450,1.7647539237149815162704089139995
451,1.7652010377347992302149148605656
452,1.7656471627745166505322414633529
453,1.7660923032150897467106935404337
454,1.7665364634085558263628416123919
455,1.7669796476782901119907885584613
456,1.7674218603192569270877456698222
457,1.7678631055982601872912751219181
458,1.7683033877541895924942660379308
459,1.7687427109982650338469238771122
460,1.7691810795142788580031844735040
461,1.7696184974588338383452334541454
462,1.7700549689615800662470815557921
463,1.7704904981254493661574166139946
464,1.7709250890268853954190428974194
465,1.7713587457160733975707711912185
466,1.7717914722171667398404883283303
467,1.7722232725285095153550339530732
468,1.7726541506228602257217595621508
469,1.7730841104476090206900312584881
470,1.7735131559249960194445113101518
471,1.7739412909523249806517355115042
472,1.7743685194021766188829952598954
473,1.7747948451226169183312415518759
474,1.7752202719374079478276694699240
475,1.7756448036462100999287446887014
476,1.7760684440247882678912540946859
477,1.7764911968252122935483900220874
478,1.7769130657760563620895994790310
479,1.7773340545825962331417900548669
480,1.7777541669270047027506686134825
481,1.7781734064685438471502633759203
482,1.7785917768437576171242756314821
483,1.7790092816666601629719722422422
484,1.7794259245289227098478958566102
485,1.7798417090000604603695260083388
486,1.7802566386276141092995172704665
487,1.7806707169373328191025215970437
488,1.7810839474333532528784808964119
489,1.7814963335983778927889642102684
490,1.7819078788938505070359360998170
491,1.7823185867601308996112232833489
492,1.7827284606166675309353977644975
493,1.7831375038621679843275234668747
494,1.7835457198747683722756477450374
495,1.7839531120121998749332753029211
496,1.7843596836119556551909846938576
497,1.7847654379914538357716373268003
498,1.7851703784482004835269078933675
499,1.7855745082599500981813599211579
500,1.785977830684865735918869864075
501,1.786380348961674513743830836684
502,1.786782066309825949689647951232
503,1.787182985929644606890136233084
504,1.787583111002484885237671016581
505,1.787982444690880807979437552869
506,1.788380990138696533219490000992
507,1.788778750471275438234561069837
508,1.789175728795587416438723780097
509,1.789571928200372617762659509391
510,1.789967351756287685555917079748
511,1.790362002516047720960949976497
512,1.790755883514567874824841574450
513,1.791148997769103182758204301960
514,1.791541348279387319676972423872
515,1.791932938027770647999274075193
516,1.792323769979355769763535591622
517,1.792713847082131657335517626842
518,1.793103172267108148023435970518
519,1.793491748448447584477341016890
520,1.793879578523596457814550149035
521,1.794266665373413848636021557330
522,1.794653011862300942076274006171
523,1.795038620838328053985607500125
