Eigenstate,Potential Energy
1,0.500000000088710088068557714426587163
2,0.64623093823016913943956358889605468
3,0.73633761140590731039517581799917339
4,0.79966528135710181407375254055455242
5,0.8480465814226861680922667984564945
6,0.8870660063667884522747195817025054
7,0.9197208376320360381506508964333525
8,0.9477838615977516275421721345759693
9,0.9723835772716267748567045250383924
10,0.9942802388031579828576832806695128
11,1.0140094163340456856126288411251429
12,1.0319622051694328288498608762215752
13,1.0484327353755548948572666890322231
14,1.0636477046359349433829328359927959
15,1.0777854940655887171342193787849590
16,1.090988973081482478832737631351630
17,1.103374332864045757385513445485465
18,1.115037337363376542250012758068405
19,1.126057846403222920154016330416408
20,1.136503153314922401999357412847161
21,1.146430491019101212604098132588121
22,1.155888943184415997383326909275535
23,1.164920922164079669722328774971012
24,1.173563326396284487688227687689267
25,1.181848457200129162556865275154481
26,1.189804752583207177771611577514375
27,1.197457380204183081371077993938465
28,1.204828720731832695987068286933335
29,1.211938765046995362209746851667224
30,1.218805443084398757035940044682033
31,1.225444897965378325627402381058545
32,1.231871715994613777421228797930339
33,1.238099120784357291714084492068479
34,1.244139138019081810372728399650858
35,1.250002736034282728655342862160518
36,1.255699946349687415859768121235537
37,1.261239967493042448460106050282456
38,1.266631254820229694844911471412193
39,1.271881598539613740941350948037917
40,1.276998191752702362224815364577883
41,1.281987690006451473705999715415063
42,1.286856263597553387836337369420489
43,1.291609643662560865241504235611092
44,1.296253162919605427597548483458093
45,1.300791791789898832894942368023851
46,1.305230170514070330684646447844575
47,1.309572637784915702522135972873919
48,1.313823256340547728539857949216234
49,1.317985835897275177151384488371719
50,1.32206395374741470121213709314883
51,1.32606097330177306146867404787590
52,1.32998006081819188381179124177637
53,1.33382420052509703828850750709280
54,1.33759620832143359636010060640520
55,1.34129874421089183037139866921282
56,1.34493432360825514906307962489604
57,1.34850532763850189783247576816926
58,1.35201401253449576615185744848523
59,1.35546251822634559727233067610783
60,1.35885287620449088763541682091342
61,1.36218701672900503590583904065372
62,1.36546677544930739642258845749692
63,1.36869389949123330284188275736810
64,1.37187005306209874782125967741574
65,1.37499682261886156461946576544852
66,1.37807572163963361743061338717829
67,1.38110819503453621594400905197960
68,1.38409562322813480881112448066193
69,1.38703932594237633997349788849655
70,1.38994056570602438353972136536808
71,1.39280055111398846916868507860936
72,1.39562043985764576753459328524567
73,1.39840134154520029904611017930484
74,1.40114432032930598043792337734230
75,1.40385039735754872275011182889075
76,1.40652055305993323745446089237577
77,1.40915572928621780906890992961905
78,1.41175683130477449442060309096573
79,1.41432472967360538872549134652039
80,1.41686026199320747300764267454710
81,1.41936423455012921590502447491785
82,1.42183742385930065235446353838476
83,1.42428057811252992785881428035433
84,1.42669441853993500532326717139786
85,1.42907964069051995527390314733226
86,1.43143691563758938488202611216032
87,1.43376689111423709041840315661169
88,1.43607019258372164002535482741365
89,1.43834742424915809153339893118116
90,1.44059917000661183331975459798112
91,1.44282599434535908415578620096426
92,1.44502844319879029045062840380489
93,1.44720704474917040424357177859082
94,1.44936231018922709655908728151921
95,1.45149473444331680670979462849772
96,1.45360479685071670601625888926691
97,1.45569296181340631230314296702122
98,1.45775967941052961723634390379186
99,1.45980538598157511637731198140876
100,1.46183050468016479141417157816089
101,1.46383544600021378987553530664913
102,1.46582060827609697291157667870574
103,1.46778637815835058811426817222664
104,1.46973313106633005963899378814663
105,1.47166123161915181413211300603821
106,1.47357103404615629672626883861281
107,1.47546288257805124940971146649549
108,1.47733711181981508452184368405599
109,1.47919404710637159259319744925866
110,1.48103400484198480362306374283461
111,1.48285729282425695968996685376624
112,1.48466421055356312315683080006198
113,1.48645504952870040893864266864232
114,1.48823009352948107154466604782059
115,1.48998961888695822910462309944768
116,1.49173389474192467494051516811247
117,1.49346318329229351423902873804542
118,1.49517774002992833227440945177652
119,1.49687781396745688691525730374454
120,1.49856364785557647591470761671385
121,1.50023547839132086223860432025884
122,1.50189353641773972755436931595818
123,1.50353804711540943107149776731112
124,1.50516923018617617111582447023333
125,1.50678730002950308055760896855220
126,1.50839246591177758991550163452135
127,1.50998493212891481407275923485545
128,1.51156489816257013135246744248576
129,1.51313255883026205046065469576203
130,1.51468810442968807893905692244549
131,1.51623172087750090265200995781815
132,1.51776358984279720863135689005669
133,1.51928388887555970201860677831948
134,1.52079279153028159188709163469135
135,1.52229046748498471238289566109461
136,1.52377708265583875809380459672012
137,1.52525279930757580461313285755559
138,1.52671777615988067327388072978382
139,1.52817216848993559312404050136242
140,1.52961612823128216724606821541641
141,1.53104980406915909303324018932415
142,1.53247334153246601277008502659722
143,1.53388688308249522069397951797220
144,1.53529056819856577307937225256015
145,1.53668453346069036012643164747181
146,1.53806891262939742968660106787587
147,1.53944383672282284989076042157245
148,1.54080943409118643971352104100214
149,1.54216583048875516843329795986663
150,1.54351314914339666487014511904949
151,1.54485151082381895066182841634426
152,1.54618103390458669675222004191572
153,1.54750183442900295279164671996984
154,1.54881402616994024869612550275949
155,1.55011772068869930436388160801888
156,1.55141302739197321391778917895974
157,1.55270005358698815108196899986567
158,1.55397890453489241380038478900458
159,1.5552496835024574809361439390651
160,1.5565124918121574185962570243958
161,1.5577674288906851322075738874610
162,1.5590145923159649254509316646265
163,1.5602540778627162193586395307431
164,1.5614859795466230681772414494930
165,1.5627103896671580722204080125432
166,1.5639273988491112033076617610160
167,1.5651370960828707751173402151745
168,1.5663395687634992473759851546366
169,1.5675349027286489259835648289974
170,1.5687231822953573022010826561044
171,1.5699044902957622253710378896039
172,1.5710789081117747758403202081379
173,1.5722465157087452404276218557816
174,1.5734073916681580339621673615156
175,1.5745616132193895518393053140655
176,1.5757092562705586599595040842026
177,1.5768503954385030826024951015280
178,1.5779851040779108426474394704904
179,1.5791134543096331991007490635082
180,1.5802355170482100283465031110243
181,1.5813513620286302977222740923367
182,1.5824610578323553268234592690294
183,1.5835646719126278858283298683842
184,1.5846622706190913723983313562305
185,1.5857539192217408752976036977595
186,1.5868396819342270933693859629615
187,1.5879196219365369103894937553620
188,1.5889938013970660621318475359019
189,1.5900622814941076267560778814212
190,1.5911251224367719896149396373815
191,1.5921823834853575050540644795500
192,1.5932341229711882374268257919055
193,1.5942803983159370851936717550686
194,1.5953212660504476289091615385726
195,1.5963567818330726354772448079839
196,1.5973870004675429105956319519454
197,1.5984119759203808747332762352398
198,1.5994317613378730246418249356534
199,1.6004464090626141142793014058590
200,1.6014559706496369953688092366159
201,1.6024604968821390940343964306443
202,1.6034600377868188996917218610551
203,1.6044546426488331209388962550500
204,1.6054443600263861233773340133701
205,1.6064292377649616147412945580891
206,1.6074093230112095961024739376837
207,1.6083846622264944498444796045673
208,1.6093553012001183858828610984215
209,1.6103212850622259890306486344055
210,1.6112826582964013631810528817179
211,1.6122394647519652313381974733502
212,1.6131917476559822186935185930373
213,1.6141395496249826967131508983593
214,1.6150829126764141639962547991953
215,1.6160218782398213702093027351709
216,1.6169564871677691376273159856914
217,1.6178867797465118393981762997249
218,1.6188127957064185070561728098334
219,1.6197345742321568402995214598005
220,1.6206521539726486272354952103610
221,1.6215655730507944774649529417841
222,1.6224748690729850654514396338899
223,1.6233800791383924450894269298208
224,1.6242812398480564948525518582778
225,1.6251783873137690501506055318710
226,1.6260715571667592609220919847007
227,1.6269607845661888173956641913873
228,1.6278461042074588543117409507875
229,1.6287275503303356858366278364932
230,1.6296051567269000574983681827099
231,1.6304789567493217045019455824450
232,1.6313489833174696254313551449526
233,1.6322152689263530569329572872770
234,1.6330778456534092955368903305778
235,1.6339367451656315378086373016005
236,1.6347919987265464376937345980982
237,1.6356436372030450012781484791720
238,1.6364916910720685500727532016946
239,1.6373361904271551885000875395155
240,1.6381771649848489291020285307452
241,1.6390146440909757569170091671720
242,1.6398486567267894890808124650113
243,1.6406792315149914605298808738438
244,1.6415063967256257241481374842253
245,1.6423301802818541385780667753761
246,1.6431506097656138623735819340022
247,1.6439677124231586363915494602866
248,1.6447815151704914350920642804427
249,1.6455920445986834553780073861844
250,1.6463993269790898272142556635754
251,1.6472033882684599455742521512268
252,1.6480042541139452217520033029274
253,1.6488019498580093257837146425112
254,1.6495965005432405763797626360048
255,1.6503879309170703579413297828930
256,1.6511762654363976495785742067284
257,1.6519615282721260570240332840541
258,1.6527437433136097916551167474339
259,1.6535229341730153996318825446032
260,1.6542991241895996270145661476272
261,1.6550723364339037340798250601983
262,1.6558425937118689837334651979513
263,1.6566099185688721540729407489196
264,1.6573743332936865254311701958033
265,1.6581358599223668666062346767589
266,1.6588945202420605874919442755615
267,1.6596503357947482708273202963431
268,1.6604033278809136162521486472656
269,1.6611535175631470660592918475763
270,1.6619009256696788362639974922854
271,1.6626455727978506364247854047483
272,1.6633874793175200572626100797293
273,1.6641266653744050686776877932689
274,1.6648631508933658366717911906683
275,1.6655969555816277342469820018579
276,1.6663280989319438241313343262862
277,1.6670566002257042968450701566452
278,1.6677824785359846182597520494744
279,1.6685057527305438893268943616618
280,1.6692264414747655110592285602444
281,1.6699445632345480438081783754397
282,1.6706601362791437573308441116066
283,1.6713731786839480843228615032825
284,1.6720837083332371341856529335037
285,1.6727917429228600745287620335080
286,1.6734972999628824053949311391448
287,1.6742003967801851857474603762126
288,1.6749010505210166142499648926022
289,1.6755992781535006126590752858991
290,1.6762950964701031446232021712103
291,1.6769885220900541110937400915194
292,1.6776795714617277075316100370488
293,1.6783682608649851489605403564189
294,1.6790546064134748000690166760878
295,1.6797386240568917977942320393641
296,1.6804203295832047522464079438699
297,1.6810997386208394579989887033626
298,1.6817768666408289328053503769473
299,1.6824517289589265869118722994442
300,1.6831243407376842738903272247152
301,1.6837947169884956347537588853850
302,1.6844628725736068286183404204183
303,1.6851288222080918233794313997340
304,1.6857925804617958242742482429458
305,1.6864541617612482692121625414931
306,1.6871135803915446544480259891903
307,1.6877708504981943729415967473246
308,1.6884259860889420442232847879420
309,1.6890790010355584254339734491721
310,1.6897299090756012390941119485161
311,1.6903787238141495129232034218981
312,1.6910254587255089452672337209361
313,1.6916701271548896893159367579193
314,1.6923127423200583608272682279725
315,1.6929533173129635894528151676665
316,1.6935918651013364897657094383253
317,1.6942283985302635910662603609280
318,1.6948629303237375776884637465647
319,1.6954954730861829818575770260889
320,1.6961260393039568308551150604232
321,1.6967546413468281679327305236894
322,1.6973812914694325619260007337356
323,1.6980060018127051201331077298233
324,1.6986287844052909821400427108080
325,1.6992496511649350571209673078939
326,1.6998686138998492424044031559214
327,1.7004856843100599446293832888866
328,1.7011008739887330932750537216167
329,1.7017141944234816220161692240660
330,1.7023256569976518501785982115143
331,1.7029352729915902034922016765572
332,1.7035430535838913360005785265886
333,1.7041490098526280323106652782483
334,1.7047531527765610748477182463375
335,1.7053554932363333917039312341882
336,1.7059560420156445438038065924593
337,1.7065548098024084243153343777499
338,1.7071518071898952298578118032674
339,1.7077470446778537687286401170154
340,1.7083405326736201982153521846205
341,1.7089322814932089053195688653757
342,1.7095223013623880288020360973988
343,1.7101106024177392611124848405977
344,1.7106971947077019247120601535702
345,1.7112820881936031429267661698675
346,1.7118652927506715809640870842357
347,1.7124468181690383232922901813806
348,1.7130266741547216999783091238152
349,1.7136048703305996077883450637254
350,1.7141814162373668693039618414907
351,1.7147563213344797185743765068525
352,1.7153295950010870966220525570315
353,1.7159012465369480421420901894978
354,1.7164712851633365928635091536650
355,1.7170397200239345638641793939518
356,1.7176065601857104136635288007713
357,1.7181718146397874381924719650009
358,1.7187354923023005377276092950165
359,1.7192976020152373030431166473044
360,1.7198581525472723598317647071077
361,1.7204171525945867174282140082837
362,1.7209746107816786046234289832854
363,1.7215305356621603893964580471866
364,1.7220849357195466078029842182759
365,1.7226378193680313396605714144011
366,1.7231891949532538099969656360931
367,1.7237390707530551096060884967518
368,1.7242874549782228248020392989002
369,1.7248343557732282103098402755818
370,1.7253797812169516198903528223656
371,1.7259237393233990494714541384532
372,1.7264662380424087507534956207634
373,1.7270072852603478835330086814947
374,1.7275468888008035167878992658861
375,1.7280850564252586716872592766622
376,1.7286217958337648643861476295951
377,1.7291571146656029394838990797065
378,1.7296910204999353632745102921211
379,1.7302235208564518183436414127361
380,1.7307546231960048580734273975577
381,1.7312843349212384983291178381547
382,1.7318126633772068663791307950281
383,1.7323396158519875836353489318040
384,1.7328651995772848478885717705158
385,1.7333894217290258383122749886863
386,1.7339122894279511039540552689137
387,1.7344338097401946871681054387878
388,1.7349539896778579209558134018767
389,1.7354728361995775771164413404469
390,1.7359903562110855565882315994349
391,1.7365065565657604412477705733850
392,1.7370214440651745179257924840300
393,1.7375350254596337505728644118634
394,1.7380473074487092841657320029185
395,1.7385582966817633397966312949814
396,1.7390679997584691544365886893937
397,1.7395764232293245979716658255711
398,1.7400835735961594784063809590437
399,1.7405894573126351038501069385538
400,1.7410940807847404041462089846782
401,1.7415974503712806640307170974236
402,1.7420995723843596160837444665288
403,1.7426004530898577173399442367713
404,1.7431000987079045058427551875090
405,1.7435985154133425058805976134897
406,1.7440957093361887943009515636059
407,1.7445916865620913480792958186252
408,1.7450864531327776798810683755619
409,1.7455800150464986263267194874899
410,1.7460723782584698071694895630768
411,1.7465635486813050192289327891173
412,1.7470535321854451515944282936213
413,1.7475423345995837051886771990029
414,1.7480299617110853446731111398442
415,1.7485164192664017708948922548370
416,1.7490017129714813478727733611038
417,1.7494858484921753372727305228981
418,1.7499688314546379082057050977134
419,1.7504506674457242055680945401289
420,1.7509313620133814636902011047417
421,1.7514109206670371224409163997798
422,1.7518893488779832325009127471870
423,1.7523666520797549911804294303643
424,1.7528428356685070278956994559654
425,1.7533179050033838241877835507833
426,1.7537918654068878808143292166103
427,1.7542647221652431223719332101046
428,1.7547364805287535591453449230566
429,1.7552071457121611247240300289138
430,1.7556767228949955578338682840826
431,1.7561452172219238385445452020182
432,1.7566126338030963350607781142648
433,1.7570789777144850058730895169957
434,1.7575442539982247622772478541287
435,1.7580084676629458222097605533872
436,1.7584716236841049638649909440577
437,1.7589337270043138481584703642412
438,1.7593947825336634000050213764706
439,1.7598547951500449378559352750629
440,1.7603137696994691310744715754625
441,1.7607717109963799536184429650110
442,1.7612286238239672065305568281681
443,1.7616845129344772660548069807510
444,1.7621393830495166861302575828521
445,1.7625932388603579955785724731041
446,1.7630460850282387242803593121869
447,1.7634979261846608377372282090049
448,1.7639487669316838087689766036304
449,1.7643986118422191776939087662209
450,1.7648474654603187646119947825971
451,1.7652953323014640483961508954014
452,1.7657422168528495655946522728451
453,1.7661881235736660845344252053819
454,1.7666330568953799561533732826952
455,1.7670770212220122784090077411798
456,1.7675200209304131846204611321425
457,1.7679620603705359652287618609059
458,1.7684031438657074330687237265720
459,1.7688432757128970607175312560822
460,1.7692824601829845473514818417249
461,1.7697207015210236804021814727633
462,1.7701580039465057211099000457087
463,1.7705943716536209343015678307406
464,1.7710298088115164403757198427850
465,1.7714643195645543758474987772292
466,1.7718979080325675113314171866143
467,1.7723305783111116262369961747942
468,1.7727623344717196751798814679981
469,1.7731931805621502427903990548120
470,1.7736231206066378320962976139362
471,1.7740521586061392748883234944880
472,1.7744802985385805836716991169732
473,1.7749075443590996188383304677305
474,1.7753339000002920985081503115493
475,1.7757593693724498980415829118545
476,1.7761839563638041780795470173156
477,1.7766076648407636999776239798462
478,1.7770304986481530313852825944104
479,1.7774524616094495589902437448166
480,1.7778735575270197315966359172946
481,1.7782937901823531139592653399941
482,1.7787131633362978507202803082992
483,1.7791316807292929520472128124779
484,1.7795493460816002534134470473540
485,1.7799661630935375602202742269620
486,1.7803821354457075970411299071243
487,1.7807972667992296464804165821648
488,1.7812115607959685116085596594372
489,1.7816250210587640688682506311880
490,1.7820376511916593146663032177987
491,1.7824494547801290814342907715482
492,1.7828604353913080543329278037726
493,1.7832705965742181081511888727437
494,1.7836799418599961045628737669406
495,1.7840884747621203900436096462670
496,1.7844961987766392884195744925434
497,1.7849031173823973249125221158090
498,1.7853092340412631801805292058089
499,1.7857145521983569268723639921665
500,1.786119075282278736421843567136
501,1.786522806705334861470340977173
502,1.786925749863768410670123527121
503,1.787327908137986447897919523459
504,1.787729284892791326004650480939
505,1.788129883477609171410899874044
506,1.788529707226721321068005908727
507,1.788928759459496634020261013090
508,1.789327043480624394571838752977
509,1.789724562580346117998624150445
510,1.790121320034692395190137840708
511,1.790517319105718093721223964637
512,1.790912563041739905362567251868
513,1.791307055077574949151203241914
514,1.791700798434781203563266854346
515,1.792093796321900243067062540979
516,1.792486051934700594489423390333
517,1.792877568456422897257263128618
518,1.793268349058028766678729306486
519,1.793658396898450260636241533067
520,1.794047715124842929969523006188
521,1.794436306872839376153262469441
522,1.794824175266807726164785210829
523,1.795211323420111600979278933626
