Eigenstate,Potential Energy
1,0.500000000048427142665198888973032339
2,0.64623093796722188046978437216962812
3,0.73633761063351555287974452118348318
4,0.79966527974828256408606062993040317
5,0.8480465786358479811107341093282831
6,0.8870660020543400590752279875354420
7,0.9197208314435552064663083871958505
8,0.9477838531813039220109618001734047
9,0.9723835662743762213483559109495356
10,0.9942802248716746479294131394837587
11,1.0140093991144705743931832664775367
12,1.0319621843075700715305320085604639
13,1.0484327105169243457867448205647159
14,1.0636476754258019944813964398201413
15,1.0777854601489803620242229699671258
16,1.090988934103194737186744786345821
17,1.103374288468645475994918420488226
18,1.115037287195199421728061288455184
19,1.126057790106368938348307892547687
20,1.136503090533249397623336806537198
21,1.146430421396217139797609089506874
22,1.155888866363670200701585411401650
23,1.164920837788553423660938938893346
24,1.173563234108780974391344496657383
25,1.181848356643163013283560128921597
26,1.189804643398993670287978438096264
27,1.197457262034627061824992942257442
28,1.204828593218517276876561988928183
29,1.211938627831170435719727004164225
30,1.218805295806969353919351861710969
31,1.225444740266892843014438452880443
32,1.231871547515252093812166615205609
33,1.238098941163918783499184342273273
34,1.244138946896973281208846543706505
35,1.250002533049506260685962477021899
36,1.255699731140828149928051869112969
37,1.261239739698256299012424381161794
38,1.266631014077231004065782876475228
39,1.271881344485662875732960336192551
40,1.276997924024593256894907111566072
41,1.281987408240499120618836036865095
42,1.286855967429581277783126446412392
43,1.291609332727888378876688571384369
44,1.296252836853035178948104390643100
45,1.300791450225703965667536669373817
46,1.305229813085981767859271160850776
47,1.309572264126109349522319691644726
48,1.313822866083631630101667613633161
49,1.317985428674276627870838619781637
50,1.32206352918976730962903170466688
51,1.32606053104030376744032428288322
52,1.32997960048310792884025393180135
53,1.33382372174597288838691415517197
54,1.33759571072719781697582037495226
55,1.34129822742981391282441161308880
56,1.34493378726793228790571828023708
57,1.34850477136584571849063673524808
58,1.35201343595571900216662599741097
59,1.35546192096694871642456702632102
60,1.35885225788924866620284937282274
61,1.36218637698195308027259444120827
62,1.36546611389372861123409180528034
63,1.36869321574964430487352898901300
64,1.37186934675623622470670097160352
65,1.37499609336966857756339062807618
66,1.37807496906724584701167408316961
67,1.38110741875826815009540966037711
68,1.38409482286646587204945989346426
69,1.38703850111293696293028378144158
70,1.38993971602558201183512422252538
71,1.39279967619843351065212389557807
72,1.39561953932197747690332671788745
73,1.39840041500351259883926405130672
74,1.40114336739477321739068754774247
75,1.40384941764241135848007453351237
76,1.40651954617548347243997681778146
77,1.40915469484278513886731739250418
78,1.41175576891171119706226761198376
79,1.41432363893927194220812504743701
80,1.41685914252495790180393142435150
81,1.41936308595429636538511382384098
82,1.42183624574118139001363438895246
83,1.42427937007637027022950947392071
84,1.42669318018891516943935018916974
85,1.42907837162673933354385268875275
86,1.43143561546205144221670851021474
87,1.43376555942683418244765442524851
88,1.43606882898321975122647320643755
89,1.43834602833318149208329791109444
90,1.44059774137162765347126387657640
91,1.44282453258666180492684663918594
92,1.44502694791048614940399096111988
93,1.44720551552416171512260261051078
94,1.44936074661919648153373726017235
95,1.45149313611871133997492197043104
96,1.45360316336073196747240691990029
97,1.45569129274597035003786197231717
98,1.45775797435228681751188411745331
99,1.45980364451786997981801425083273
100,1.46182872639502561407449560874376
101,1.46383363047633624785680582061987
102,1.46581875509482760918278659441954
103,1.46778448689967020017926362773867
104,1.46973120130883698667896200452427
105,1.47165926294004512223912999035238
106,1.47356902602121886083004591957541
107,1.47546083478163273048593446903052
108,1.47733502382481480065645821731637
109,1.47919191848422128246298983055397
110,1.48103183516263128093855108002375
111,1.48285508165614465713199093135815
112,1.48466195746361652432354449236781
113,1.48645275408230636680464973155838
114,1.48822775529047101191890716845523
115,1.48998723741759023755808038221449
116,1.49173146960286546565937288306650
117,1.49346071404260027924298104606557
118,1.49517522622703046942368244126002
119,1.49687525516713760511380075745617
120,1.49856104361195427590013970102618
121,1.50023282825683089133293988378684
122,1.50189083994311500673245953817443
123,1.50353530384966195268666930560797
124,1.50516643967657786560493821540998
125,1.50678446182156665042955520594300
126,1.50838957954923720930933070986166
127,1.50998199715370669215324189123854
128,1.51156191411481293779217000881184
129,1.51312952524823720123870901669002
130,1.51468502084981988066781346191496
131,1.51622858683433655362294732145900
132,1.51776040486898665475194231969327
133,1.51928065250183534579211342679255
134,1.52078950328543785256634769100650
135,1.52228712689585743540877935097168
136,1.52377368924728447190817275684724
137,1.52524935260245082291444760958641
138,1.52671427567902004076220809563343
139,1.52816861375213187276036861411197
140,1.52961251875326406702817351791553
141,1.53104613936556993026828449584123
142,1.53246962111584201380060626184445
143,1.53388310646324365401099349201857
144,1.53528673488494291373248232861408
145,1.53668064295877928331701632174897
146,1.53806496444308563140545581665423
147,1.53943983035377969243714299269507
148,1.54080536903884041990732665829261
149,1.54216170625027100630635116210445
150,1.54350896521365221059732002106987
151,1.54484726669538190746564624132149
152,1.54617672906769115748853318072543
153,1.54749746837152574789660743495006
154,1.54880959837737710314732173507622
155,1.55011323064414080128047483679320
156,1.55140847457608056239618390897235
157,1.55269543747796875583498886337597
158,1.55397422460847524413835876058991
159,1.5552449392318682365990540762201
160,1.5565076826680934899156777617865
161,1.5577625543412903520468073268717
162,1.5590096518268041103406043516951
163,1.5602490708967494972136286673010
164,1.5614809055641799899487554072949
165,1.5627052481259115048044480888329
166,1.5639221892040510009985109966787
167,1.5651318177862772268608873219229
168,1.5663342212649162970438288736935
169,1.5675294854748571628545801280403
170,1.5687176947303467188016076609039
171,1.5698989318607047397897642873283
172,1.5710732782449965155975166355777
173,1.5722408138456985849420061837787
174,1.5734016172413934126209529473662
175,1.5745557656585269946396921129762
176,1.5757033350022590976512144952237
177,1.5768443998864393932219858311321
178,1.5779790336627386412949723911842
179,1.5791073084489613677709373958252
180,1.5802292951565709825824463513844
181,1.5813450635174499868219471772060
182,1.5824546821099229642847248363703
183,1.5835582183840654066761997375297
184,1.5846557386863226139949464349453
185,1.5857473082834604781904449419588
186,1.5868329913858691186897496595507
187,1.5879128511702431702667196797071
188,1.5889869498016541595427302276716
189,1.5900553484550387011825201215543
190,1.5911181073361181648346184228662
191,1.5921752857017690353404134317701
192,1.5932269418798603483860340025587
193,1.5942731332885765054157936852709
194,1.5953139164552388085602779109686
195,1.5963493470346436479072428693901
196,1.5973794798269310329848108485822
197,1.5984043687949978437467724684568
198,1.5994240670814699630075968392578
199,1.6004386270252461241498483330617
200,1.6014481001776274142713631387218
201,1.6024525373180434091580598845400
202,1.6034519884693883162011068149919
203,1.6044465029129777799468715941838
204,1.6054361292031379651489802732141
205,1.6064209151814368826412501826767
206,1.6074009079905709767362916301482
207,1.6083761540879128447822836856640
208,1.6093466992587343102903688041626
209,1.6103125886291105924677522645348
210,1.6112738666785170677633489778498
211,1.6122305772521259823901014862772
212,1.6131827635728133429539876047120
213,1.6141304682528803630860655353429
214,1.6150737333055044417684474720660
215,1.6160126001559188795878021240080
216,1.6169471096523352873749014971314
217,1.6178773020766126462739478747142
218,1.6188032171546819916932394971307
219,1.6197248940667299940750133571485
220,1.6206423714571539446128142995710
221,1.6215556874442860482090808311749
222,1.6224648796299042210387310272780
223,1.6233699851085229535523685422862
224,1.6242710404764792982183653523760
225,1.6251680818408165385483927355641
226,1.6260611448279690773484091530780
227,1.6269502645922571870433917612453
228,1.6278354758241934322769787184619
229,1.6287168127586079169309467705896
230,1.6295943091825970418028459039501
231,1.6304679984432975622063731415574
232,1.6313379134554963544090061345292
233,1.6322040867090708764054830391056
234,1.6330665502762764690869835071772
235,1.6339253358188736689000043060480
236,1.6347804745951052307569128222105
237,1.6356319974665264813192546662949
238,1.6364799349046907336581807747175
239,1.6373243169976951988651529416021
240,1.6381651734565895480236382225188
241,1.6390025336216514058819445858248
242,1.6398364264685316321701000604219
243,1.6406668806142734213263598184878
244,1.6414939243232069088604737992781
245,1.6423175855127236574566736840617
246,1.6431378917589335413756572633229
247,1.6439548703022054109317573822474
248,1.6447685480525991175917405212480
249,1.6455789515951838682014774402433
250,1.6463861071952532924531966306048
251,1.6471900408034351230112943397513
252,1.6479907780606982862039319729379
253,1.6487883443032624748895353161896
254,1.6495827645674098597631424768459
255,1.6503740635942028185383584028140
256,1.6511622658341077677797286911855
257,1.6519473954515314881364976242771
258,1.6527294763292663870445974711234
259,1.6535085320728515017549555350058
260,1.6542845860148496284004098353330
261,1.6550576612190408901666158379077
262,1.6558277804845374693071766597811
263,1.6565949663498183528978500348285
264,1.6573592410966895424968901739144
265,1.6581206267541682522523741183231
266,1.6588791451022932625024866048460
267,1.6596348176758646414149295772355
268,1.6603876657681128676784478662909
269,1.6611377104343016234597821031543
270,1.6618849724952599810644650239902
271,1.6626294725408532665527349862574
272,1.6633712309333865791692891699753
273,1.6641102678109484089953093356648
274,1.6648466030906915611360841575460
275,1.6655802564720552613176067386079
276,1.6663112474399267205404671650892
277,1.6670395952677496420993348285752
278,1.6677653190205714249117233540812
279,1.6684884375580405656193703817622
280,1.6692089695373463523283798670591
281,1.6699269334161087388108970062309
282,1.6706423474552158954363331798729
283,1.6713552297216126492796065792996
284,1.6720655980910369699414338476191
285,1.6727734702507113083432433010846
286,1.6734788637019848132417138221786
287,1.6741817957629314847566728321457
288,1.6748822835709006666893791472087
289,1.6755803440850245256976672415015
290,1.6762759940886832498572244521622
291,1.6769692501919258075521037867900
292,1.6776601288338491516034811312886
293,1.6783486462849397744144662494578
294,1.6790348186493726510493526573018
295,1.6797186618672696573948851982039
296,1.6804001917169250489686583423569
297,1.6810794238169879321029263826098
298,1.6817563736286110442599194871935
299,1.6824310564575626463392754730771
300,1.6831034874563032775851256417516
301,1.6837736816260277845349110992373
302,1.6844416538186747169443145161468
303,1.6851074187389002638223993630922
304,1.6857709909460203071088533417283
305,1.6864323848559220215254754147516
306,1.6870916147429442838248446910533
307,1.6877486947417240734157921188524
308,1.6884036388490163428189336544527
309,1.6890564609254834472436756124293
310,1.6897071746974544684588470133917
311,1.6903557937586580278870254871379
312,1.6910023315719261020814888970324
313,1.6916468014708702333619945326458
314,1.6922892166615319399107424031391
315,1.6929295902240066450003389713868
316,1.6935679351140425010237894525965
317,1.6942042641646116469609405159884
318,1.6948385900874592505561734370173
319,1.6954709254746274767989889671105
320,1.6961012827999543839966121852050
321,1.6967296744205516664035619931564
322,1.6973561125782573578715560722771
323,1.6979806094010670105895187995535
324,1.6986031769045423260871608399189
325,1.6992238269931990005152703031752
326,1.6998425714618720214631079550052
327,1.7004594219970612371022326986686
328,1.7010743901782543868859380118746
329,1.7016874874792325686983787426213
330,1.7022987252693545741541861089655
331,1.7029081148148215306613729397027
332,1.7035156672799229115085744315152
333,1.7041213937282642925504076622026
334,1.7047253051239750395354073278924
335,1.7053274123329002410288586933295
336,1.7059277261237729450035548475868
337,1.7065262571693695713660395797312
338,1.7071230160476495592923592092487
339,1.7077180132428753139032131902072
340,1.7083112591467185436423408531130
341,1.7089027640593487019600678380536
342,1.7094925381905060304756242461455
343,1.7100805916605588414333817080717
344,1.7106669345015450331855256099590
345,1.7112515766581996580628591314684
346,1.7118345279889660174554376837382
347,1.7124157982669938494904907634148
348,1.7129953971811214210599176680907
349,1.7135733343368450691518569310200
350,1.7141496192572737338580269309728
351,1.7147242613840705706912376836140
352,1.7152972700783813246105369922049
353,1.7158686546217487501662365080055
354,1.7164384242170144922749904686991
355,1.7170065879892087929434863214193
356,1.7175731549864262337667859919533
357,1.7181381341806907532826036221105
358,1.7187015344688091832272369964644
359,1.7192633646732090488780128416743
360,1.7198236335427695714481782447590
361,1.7203823497536376174504593466585
362,1.7209395219100350766800929510310
363,1.7214951585450522644799272972602
364,1.7220492681214323723326782274210
365,1.7226018590323452032026930912905
366,1.7231529396021490693486718801351
367,1.7237025180871437446749551304659
368,1.7242506026763112604071636030651
369,1.7247972014920491766953848287088
370,1.7253423225908920433807806553574
371,1.7258859739642239032948526544425
372,1.7264281635389807946339532868803
373,1.7269688991783432191877621971469
374,1.7275081886824228849665970251484
375,1.7280460397889344148631280268754
376,1.7285824601738634776322972578210
377,1.7291174574521231304694307605104
378,1.7296510391782015406665827335793
379,1.7301832128468029262216323633489
380,1.7307139858934784722374456923468
381,1.7312433656952500986206065052404
382,1.7317713595712241973251285545143
383,1.7322979747832000138795999844442
384,1.7328232185362676369756660064851
385,1.7333470979793992174530519863247
386,1.7338696202060340754123507262984
387,1.7343907922546534448740230744616
388,1.7349106211093487928637780707362
389,1.7354291137003843876920006719908
390,1.7359462769047513056182556015956
391,1.7364621175467131929242066507701
392,1.7369766423983473918594452446915
393,1.7374898581800789040320639944560
394,1.7380017715612057724292102577707
395,1.7385123891604187390301387165821
396,1.7390217175463148289693380221010
397,1.7395297632379044912505504495578
398,1.7400365327051123042396160159404
399,1.7405420323692698118227516353724
400,1.7410462686036047902852268699936
401,1.7415492477337229949290259256501
402,1.7420509760380831317460959168178
403,1.7425514597484678749911127252306
404,1.7430507050504488238442998958021
405,1.7435487180838428637212152678599
406,1.7440455049431660413678675752610
407,1.7445410716780820705732491748282
408,1.7450354242938429718065256215079
409,1.7455285687517247069690979786553
410,1.7460205109694603238585888388394
411,1.7465112568216648704793087301905
412,1.7470008121402556619122063823101
413,1.7474891827148689789252295876678
414,1.7479763742932696222986263383635
415,1.7484623925817576069531910688651
416,1.7489472432455684256477288487382
417,1.7494309319092697308637903045327
418,1.7499134641571515982529341737194
419,1.7503948455336146502949639702077
420,1.7508750815435510222315872122033
421,1.7513541776527221226024465548395
422,1.7518321392881324701343141947728
423,1.7523089718383974432724214198814
424,1.7527846806541085562310798266017
425,1.7532592710481926410794945739649
426,1.7537327482962685428605574515093
427,1.7542051176369988125334727245925
428,1.7546763842724364115926194636462
429,1.7551465533683703409154754941275
430,1.7556156300546630561164436157690
431,1.7560836194255871732331517186824
432,1.7565505265401586144338353437723
433,1.7570163564224615318253044873829
434,1.7574811140619761074770021212689
435,1.7579448044138970535235598846832
436,1.7584074323994507135227617415823
437,1.7588690029062089266323620084640
438,1.7593295207883986368649457936972
439,1.7597889908672079289238834048894
440,1.7602474179310895620372481960408
441,1.7607048067360591618481710215324
442,1.7611611620059916342199307527766
443,1.7616164884329154488624504250899
444,1.7620707906772994123715815139061
445,1.7625240733683412615611472239703
446,1.7629763411042491016628452124207
447,1.7634275984525228587926518131699
448,1.7638778499502289651218601590250
449,1.7643271001042761174936218595410
450,1.7647753533916842621713899867548
451,1.7652226142598543090622167428836
452,1.7656688871268314170148046367690
453,1.7661141763815675935229301577149
454,1.7665584863841799980449958968085
455,1.7670018214662085730815617211962
456,1.7674441859308683002809579089301
457,1.7678855840533007775594743306620
458,1.7683260200808215134171282605331
459,1.7687654982331654526614255726825
460,1.7692040227027303761790163344647
461,1.7696415976548160247806084858977
462,1.7700782272278621604758961174021
463,1.7705139155336841692632972863424
464,1.7709486666577043666600225277382
465,1.7713824846591829750337706621083
466,1.7718153735714459037642646102109
467,1.7722473374021086130919408565855
468,1.7726783801333010776392332366202
469,1.7731085057218863266561148062894
470,1.7735377180996800858884823939507
471,1.7739660211736657885461574724083
472,1.7743934188262092533567269299991
473,1.7748199149152683809895615197324
474,1.7752455132746053732362964887754
475,1.7756702177139903980996444240796
476,1.7760940320194092150035052495922
477,1.7765169599532650935361560594277
478,1.7769390052545797021376643579513
479,1.7773601716391918565473040816131
480,1.7777804627999545230357384137326
481,1.7781998824069286277429126693063
482,1.7786184341075772413695322794686
483,1.7790361215269555196881774497599
484,1.7794529482678992201043393531236
485,1.7798689179112132716337414341606
486,1.7802840340158549835845616072459
487,1.7806983001191187422355130872212
488,1.7811117197368167925137168381986
489,1.7815242963634593333018816728566
490,1.7819360334724317899581546431628
491,1.7823469345161713988001065818580
492,1.7827570029263416922179850159441
493,1.7831662421140048599165988260698
494,1.7835746554697930808252155738956
495,1.7839822463640770186794177874916
496,1.7843890181471347262246065874556
497,1.7847949741493166440876945854247
498,1.7852001176812106401219508855493
499,1.7856044520338045871016554924487
500,1.786007980478648609806338438451
501,1.786410706268012748093130232524
502,1.786812632635047491698384931239
503,1.787213762793938655482289749394
504,1.787614099940064439538766096159
505,1.788013647250147522246652188593
506,1.788412407882407916965824155110
507,1.788810384976714441038607651754
508,1.789207581654734437701432052289
509,1.789604001020079982460208168133
510,1.789999646158456627839419191681
511,1.790394520137807918278938592951
512,1.790788626008459576083681590038
513,1.791181966803261974895113058726
514,1.791574545537731577898877102942
515,1.791966365210191715838835288739
516,1.792357428801910916024537135121
517,1.792747739277239857937303078218
518,1.793137299583748741716893494152
519,1.793526112652361852387915832140
520,1.793914181397492177771100841539
521,1.794301508717172876275969348408
522,1.794688097493189871769076157835
523,1.795073950591212013690523074190
