Eigenstate,Potential Energy
1,0.500000000012904998601345286835274997
2,0.64623093773535172334463916897019926
3,0.73633760995241516238942637179214302
4,0.79966527832962675584570397282965165
5,0.8480465761784425768168665039905535
6,0.8870659982517175766804036378332495
7,0.9197208259867736840197750567133180
8,0.9477838457601142970639567901549845
9,0.9723835565777653050885597477972703
10,0.9942802125881408389632999015588283
11,1.0140093839321737584588777735845820
12,1.0319621659144174081638133200451881
13,1.0484326886006211514919681252218167
14,1.0636476496738825387664391688673649
15,1.0777854302488265451155424468901954
16,1.090988899742047155466093576012677
17,1.103374249333609535581644605265397
18,1.115037242973248131042918741933069
19,1.126057740484343412777603985505799
20,1.136503035197857750011584400330447
21,1.146430360034032207580484798666965
22,1.155888798661126418337804599534957
23,1.164920763431943056089701285892094
24,1.173563152784249865112370952633337
25,1.181848268036705958269236850455293
26,1.189804547196449499480690975398884
27,1.197457157921673489155184637407097
28,1.204828480880665564796359097728774
29,1.211938506953759909371117942093136
30,1.218805166075161792034941209664856
31,1.225444601365666766661406049248582
32,1.231871399129396969570405586400842
33,1.238098782978029154217098893580609
34,1.244138778595442834825065851167512
35,1.250002354316521845541498598444673
36,1.255699541660363743375883222382475
37,1.261239539154066934853373269215239
38,1.266630802152846663322218340571135
39,1.271881120864382344456286197958320
40,1.276997688389477954044574498505290
41,1.281987160274366898516170873505994
42,1.286855706815000197206577840736479
43,1.291609059147170460506334845109698
44,1.296252549988230132570971012437464
45,1.300791149758592898309236505506804
46,1.305229498698070871802186143463662
47,1.309571935498623570998546604882155
48,1.313822522897508319304007733284632
49,1.317985070610159170802646187515334
50,1.32206315592799874220972184242008
51,1.32606014226092037219458426451834
52,1.32997919586583281442313547757553
53,1.33382330097020955213177819521242
54,1.33759527347202369059582287630808
55,1.34129777337397389134958297502956
56,1.34493331608983224189540889550633
57,1.34850428274354598952432388100789
58,1.35201292956692788158374299603420
59,1.35546139648901590725590190512787
60,1.35885171499915872821110681752239
61,1.36218581535631885799777276382345
62,1.36546553320878464491980137219120
63,1.36869261568124022413310960320096
64,1.37186872697983012477258474121175
65,1.37499545356032037794922096934784
66,1.37807430889961063240434470363196
67,1.38110673790658949328298645111503
68,1.38409412100456913868081408938792
69,1.38703777791422259789296255493243
70,1.38993897116301880702985092070761
71,1.39279890934455185393434998182404
72,1.39561875014886258195551348908129
73,1.39839960318279771573087499501357
74,1.40114253259763282357701898922005
75,1.40384855953955432998538025485225
76,1.40651866443714623496530061743856
77,1.40915378913872479855847284622475
78,1.41175483891119865066891926125531
79,1.41432268431108496636057295176535
80,1.41685816293737422113027002802653
81,1.41936208107508669918742918872775
82,1.42183521523760247721831782546678
83,1.42427831361515787232324438817594
84,1.42669209743627705109894334448304
85,1.42907726224834822066480586332617
86,1.43143447912303795704237404331353
87,1.43376439579177975549765074332145
88,1.43606763771614950972015911871463
89,1.43834480909755712455122001949134
90,1.44059649383034025024464749850228
91,1.44282325640202467419241444272177
92,1.44502564274422760850873701470825
93,1.44720418103741785681040373939232
94,1.44935938247250391479310318347046
95,1.45149174197199990517448973044314
96,1.45360173887331742545835104881406
97,1.45568983757654704486458196824819
98,1.45775648815892031247505955077778
99,1.45980212695798966645629686637884
100,1.46182717712541729380379205181307
101,1.46383204915313468589842538931319
102,1.46581714137350906044425475601339
103,1.46778284043504490674415701824107
104,1.46972952175504164655931724739076
105,1.47165754995053532904175465083410
106,1.47356727924876151398529617731434
107,1.47545905387829841568501550830124
108,1.47733320844197014014080392808006
109,1.47919006827252125480651618027036
110,1.48102994977201150996114833703171
111,1.48285316073581366957992831561690
112,1.48466000066204797594975121917203
113,1.48645076104723123647932657157570
114,1.48822572566886976339803626545114
115,1.48998517085568494853495388384215
116,1.49172936574611192372125637592215
117,1.49345857253568004435248084360694
118,1.49517304671384290254151328490286
119,1.49687303729079186257691594573312
120,1.49855878701476126916619052611421
121,1.50023053258029521169937454932148
122,1.50188850482792681463555630796001
123,1.50353292893568883118291763014336
124,1.50516402460285663763423659022130
125,1.50678200622629515945668935501543
126,1.50838708306976606293721014968179
127,1.50997945942653096829829859566828
128,1.51155933477556385300924444029073
129,1.51312690393167374077965998652302
130,1.51468235718982038985492178022285
131,1.51622588046389029011506762400764
132,1.51775765542018530127784528074060
133,1.51927785960586448292277576259274
134,1.52078666657256839109405638801448
135,1.52228424599543700789777828659438
136,1.52377076378772878297857177002381
137,1.52524638221123495781707453810181
138,1.52671125998266973179916752863717
139,1.52816555237621472310222177488383
140,1.52960941132238073147533592784220
141,1.53104298550334525250065144781585
142,1.53246642044491611965563540298208
143,1.53387985860526300032706006003056
144,1.53528343946055129229029540418792
145,1.53667729958760877940856329321182
146,1.53806157274374753655575919882591
147,1.53943638994385537080050818150900
148,1.54080187953487212785580041133601
149,1.54215816726775266472416891093270
150,1.54350537636702012939133624592761
151,1.54484362759800546179729087967509
152,1.54617303933186341522927826084973
153,1.54749372760845404780440039824065
154,1.54880580619717358325762573232482
155,1.55010938665581287700109485202230
156,1.55140457838752135379066915366866
157,1.55269148869594746357559367901389
158,1.55397022283862747360460932430204
159,1.5552408840786862695939377343615
160,1.5565035737349165034667960498089
161,1.5577583912302945837553370489065
162,1.5590054341389929697363099279685
163,1.5602447982319436225697769981341
164,1.5614765775210072500057179469093
165,1.5627008643017969448460669130358
166,1.5639177491952067327209203586574
167,1.5651273211876922614682105491009
168,1.5663296676703463210001868696272
169,1.5675248744768142557173191703819
170,1.5687130259200890125550567411530
171,1.5698942048282260190941881657817
172,1.5710684925790157583624981445494
173,1.5722359691336494426283384533117
174,1.5733967130694136296698954296251
175,1.5745508016114477664229564919254
176,1.5756983106635943663297352359581
177,1.5768393148383750808960080940738
178,1.5779738874861218198224445514164
179,1.5791021007232893646256472398677
180,1.5802240254599804221174600659225
181,1.5813397314267057662983502397383
182,1.5824492872004071640198112753854
183,1.5835527602297661336592768642807
184,1.5846502168598227783130575217867
185,1.5857417223559265016000160435893
186,1.5868273409270395746647096488119
187,1.5879071357484173548464985353318
188,1.5889811689836805922982426172440
189,1.5900495018063035556111192589180
190,1.5911121944205336274891801760033
191,1.5921693060817615929908419675396
192,1.5932208951163590025051039541793
193,1.5942670189410009132745837710884
194,1.5953077340814873502115324895999
195,1.5963430961910814183285168829621
196,1.5973731600683777586461130574726
197,1.5983979796747157228604305744407
198,1.5994176081511514287113155756501
199,1.6004320978350015298662485506190
200,1.6014415002759726404805884929364
201,1.6024458662518873908125795300665
202,1.6034452457840204900039570999119
203,1.6044396881520554507078720767358
204,1.6054292419086735904251688745529
205,1.6064139548937852748606628404024
206,1.6073938742484164219958673760770
207,1.6083690464282561375032892151445
208,1.6093395172168797029064343395929
209,1.6103053317386526593127159205047
210,1.6112665344713274823178314856942
211,1.6122231692583402070375996635457
212,1.6131752793208172303888927167428
213,1.6141229072692966685070834971787
214,1.6150660951151792449831761090982
215,1.6160048842819079161447694294133
216,1.6169393156158901878308859462921
217,1.6178694293971670826956140367912
218,1.6187952653498377304829857912288
219,1.6197168626522428542014080154091
220,1.6206342599469196603178052890088
221,1.6215474953503260352534466016404
222,1.6224566064623512455390803731079
223,1.6233616303756067024524887203465
224,1.6242626036845118504285698589318
225,1.6251595624941777357761898308859
226,1.6260525424290917936343613841373
227,1.6269415786416124960057623079234
228,1.6278267058202756710584430650423
229,1.6287079581979196458305325333524
230,1.6295853695596338985657333396342
231,1.6304589732505330099335031981120
232,1.6313288021833663220379285237587
233,1.6321948888459582907028984975470
234,1.6330572653084956770824321974518
235,1.6339159632306547496790444295594
236,1.6347710138685781955210276824468
237,1.6356224480817053606079918985528
238,1.6364702963394575506178134024028
239,1.6373145887277838274365241139764
240,1.6381553549555694549092233037150
241,1.6389926243609112751411889885783
242,1.6398264259172628712796378726786
243,1.6406567882394535475287837715634
244,1.6414837395895828146138508455043
245,1.6423073078827947537837948079341
246,1.6431275206929347778990303680859
247,1.6439444052580901713682504314657
248,1.6447579884860219894667637938302
249,1.6455682969594832855300568981714
250,1.6463753569414340501212350260564
251,1.6471791943801507615772518190535
252,1.6479798349142333458267981802838
253,1.6487773038775146170757977651016
254,1.6495716263038718556103752884169
255,1.6503628269319444021395968973582
256,1.6511509302097573534373775068453
257,1.6519359602992577500207733234224
258,1.6527179410807596999160369706690
259,1.6534968961573052413555977053351
260,1.6542728488589413301029814545744
261,1.6550458222469132644555045943229
262,1.6558158391177792726492540909835
263,1.6565829220074451125457804263129
264,1.6573470931951241337508510351849
265,1.6581083747072213266901311845201
266,1.6588667883211435256713900987591
267,1.6596223555690389784623974471987
268,1.6603750977414663153806461160142
269,1.6611250358909971870910868292195
270,1.6618721908357482945330973323256
271,1.6626165831628520942099544430513
272,1.6633582332318601576816475394233
273,1.6640971611780866276521133854955
274,1.6648333869158889789448461015952
275,1.6655669301418899592227251097640
276,1.6662978103381389870805646458526
277,1.6670260467752204908005294873776
278,1.6677516585153009416939817713868
279,1.6684746644151260844743444964325
280,1.6691950831289604575064953448569
281,1.6699129331114770917357436285619
282,1.6706282326205948845442937716618
283,1.6713409997202668609614291020807
284,1.6720512522832164787423058630204
285,1.6727590079936287845554225296836
286,1.6734642843497924460040296507534
287,1.6741670986666977187520052445833
288,1.6748674680785867505098720944358
289,1.6755654095414608699248454143056
290,1.6762609398355455928815532001042
291,1.6769540755677111871334779017631
292,1.6776448331738516801510218791749
293,1.6783332289212262159403796950966
294,1.6790192789107577977270567686377
295,1.6797029990792915036286793585886
296,1.6803844052018197608561871902859
297,1.6810635128936646101476637891427
298,1.6817403376126262771655324572529
299,1.6824148946610948536916368989020
300,1.6830871991881268392025774546165
301,1.6837572661914869542398997007646
302,1.6844251105196573184843867339399
303,1.6850907468738111666399231036421
304,1.6857541898097546796327732177273
305,1.6864154537398383596292002810642
306,1.6870745529348372120677266617428
307,1.6877315015257969166557703429753
308,1.6883863135058534657556243726610
309,1.6890390027320223594214908780137
310,1.6896895829269576922304219510913
311,1.6903380676806847268063447547022
312,1.6909844704523034671656508065777
313,1.6916288045716646246299472498869
314,1.6922710832410197805755493700292
315,1.6929113195366450656591215869690
316,1.6935495264104397311577958730806
317,1.6941857166914971510250678346496
318,1.6948199030876536059036427923619
319,1.6954520981870119906535418977929
320,1.6960823144594404466500571427006
321,1.6967105642580498377820687377551
322,1.6973368598206461845779000223736
323,1.6979612132711615704942721400998
324,1.6985836366210624975039487165487
325,1.6992041417707374529594675434126
326,1.6998227405108619249555100448554
327,1.7004394445237436869417419177728
328,1.7010542653846455407767144173426
329,1.7016672145630904930775382107241
330,1.7022783034241457965274395785144
331,1.7028875432296872947134166591908
332,1.7034949451396451317140375793270
333,1.7041005202132312049708111602700
334,1.7047042794101465454447080338650
335,1.7053062335917729399684159417309
336,1.7059063935223448538238138892991
337,1.7065047698701045257685719131954
338,1.7071013732084412943416982894933
339,1.7076962140170112199329367934995
340,1.7082893026828430939339104125985
341,1.7088806495014265485264098869483
342,1.7094702646777847642349380667828
343,1.7100581583275314130104561630406
344,1.7106443404779118305298174034057
345,1.7112288210688302370227947044930
346,1.7118116099538604813991590457219
347,1.7123927169012438740119309331647
348,1.7129721515948709197583350001673
349,1.7135499236352504964206662106574
350,1.7141260425404640205650400517922
351,1.7147005177471066885796376656261
352,1.7152733586112154751952078024629
353,1.7158445744091831738439716150168
354,1.7164141743386598933113865296163
355,1.7169821675194423759426604125953
356,1.7175485629943493471712052777904
357,1.7181133697300861353920774752140
358,1.7186765966180978061665017695437
359,1.7192382524754065558811675785348
360,1.7197983460454423027669452751545
361,1.7203568859988582201314031093719
362,1.7209138809343376933911122809221
363,1.7214693393793872965028879465546
364,1.7220232697911208117741441278447
365,1.7225756805570325294061187714526
366,1.7231265799957587044265890141934
367,1.7236759763578300630095582477457
368,1.7242238778264121468983049758702
369,1.7247702925180381284650659155119
370,1.7253152284833298095704306194112
371,1.7258586937077096575200223622500
372,1.7264006961121028345858606851120
373,1.7269412435536291877966970381971
374,1.7274803438262895074655173810638
375,1.7280180046616367460127381253994
376,1.7285542337294436532895964044815
377,1.7290890386383586176011051409768
378,1.7296224269365528798291741198331
379,1.7301544061123609604462612835730
380,1.7306849835949110561733761676790
381,1.7312141667547482817068664387780
382,1.7317419629044478746729201787572
383,1.7322683792992230384597864693775
384,1.7327934231375223866172138510213
385,1.7333171015616206100660041186168
386,1.7338394216582030257581918339122
387,1.7343603904589397561116071857862
388,1.7348800149410534760037521359841
389,1.7353983020278814019966301867328
390,1.7359152585894287128838495151158
391,1.7364308914429137184850576881184
392,1.7369452073533083850486928335410
393,1.7374582130338716907332258096680
394,1.7379699151466743922464974904718
395,1.7384803203031180594987679297663
396,1.7389894350644480291191842728012
397,1.7394972659422599067258396917338
398,1.7400038193989996260655581138893
399,1.7405091018484556307962340397063
400,1.7410131196562474788506746467281
401,1.7415158791403069182827999776894
402,1.7420173865713521797938001375834
403,1.7425176481733583066589285421375
404,1.7430166701240214151253859827813
405,1.7435144585552143507072064945831
406,1.7440110195534398493921753673105
407,1.7445063591602783204612662944528
408,1.7450004833728277540950330455423
409,1.7454933981441386148241224579146
410,1.7459851093836462352823592008984
411,1.7464756229575949702605165961652
412,1.7469649446894576936300717388104
413,1.7474530803603517171763050784445
414,1.7479400357094475551661551310981
415,1.7484258164343748185932906026410
416,1.7489104281916216687129573969899
417,1.7493938765969306783332778642628
418,1.7498761672256882640789368300455
419,1.7503573056133119681184376655387
420,1.7508372972556305712565794333017
421,1.7513161476092609895552459721227
422,1.7517938620919812360644253703785
423,1.7522704460830972837827769942784
424,1.7527459049238074435514496191219
425,1.7532202439175606362200328066115
426,1.7536934683304121659031460753540
427,1.7541655833913744789358113670690
428,1.7546365942927629221929707708027
429,1.7551065061905404131385785597403
430,1.7555753242046538836868399119480
431,1.7560430534193700015068485150869
432,1.7565096988836073182608100861558
433,1.7569752656112601826491088849153
434,1.7574397585815255161747013725222
435,1.7579031827392202752761910022382
436,1.7583655429950975007943326939306
437,1.7588268442261591161159625805648
438,1.7592870912759644560329761252239
439,1.7597462889549352075941936681957
440,1.7602044420406578341361532938720
441,1.7606615552781806423180186833762
442,1.7611176333803090557785505334052
443,1.7615726810278987430821267647766
444,1.7620267028701412192952709139672
445,1.7624797035248512518231491522015
446,1.7629316875787470948246020328397
447,1.7633826595877307213441425729720
448,1.7638326240771612713306986950495
449,1.7642815855421295560165061025817
450,1.7647295484477257710649278125568
451,1.7651765172293079215488648139054
452,1.7656224962927638000748914498101
453,1.7660674900147722610912414473324
454,1.7665115027430601802945186587017
455,1.7669545387966587229728283008511
456,1.7673966024661542182493077845360
457,1.7678376980139383348977222447574
458,1.7682778296744539545904114539574
459,1.7687170016544392564671027561734
460,1.7691552181331696553305669831644
461,1.7695924832626954431567511074969
462,1.7700288011680783469317496734569
463,1.7704641759476256065485673853011
464,1.7708986116731197336306373207020
465,1.7713321123900479199787043698341
466,1.7717646821178282262982721001758
467,1.7721963248500318316838244978167
468,1.7726270445546063594602647322629
469,1.7730568451740927560374494202198
470,1.7734857306258432472771913168865
471,1.7739137048022346394377565421197
472,1.7743407715708812622652667492630
473,1.7747669347748429050915351935941
474,1.7751921982328352498887007108658
475,1.7756165657394317239916284877599
476,1.7760400410652692862487869763281
477,1.7764626279572484795531397913173
478,1.7768843301387324256951710000996
479,1.7773051513097436518759093168054
480,1.7777250951471591434134666416002
481,1.7781441653049021734694352103852
482,1.7785623654141344785336362106824
483,1.7789796990834441596138679760350
484,1.7793961698990321288348368858845
485,1.7798117814248985782705841359711
486,1.7802265372030240557509227667902
487,1.7806404407535519963701404254788
488,1.7810534955749673061301924980384
489,1.7814657051442742257619428733423
490,1.7818770729171713377122583945466
491,1.7822876023282258504395718126802
492,1.7826972967910457480624473487487
493,1.7831061596984497802247514172151
494,1.7835141944226363860706040597456
495,1.7839214043153497446748459338839
496,1.7843277927080461961981149902929
497,1.7847333629120567191326233211290
498,1.7851381182187494087347007640513
499,1.7855420618996894538054097178834
500,1.785945197206798742128510345570
501,1.786347527372510840411318989578
502,1.786749055609928803712893631337
503,1.787149785112977282284793985508
504,1.787549719056556769458459704830
505,1.787948860596692837835507705151
506,1.788347212870686093656929183877
507,1.788744778997260697161685564268
508,1.789141562076711088673585069652
509,1.789537565191045151082372062012
510,1.789932791404129861728143078239
511,1.790327243761832664534226438937
512,1.790720925292162462352050560163
513,1.791113839005408845021087624465
514,1.791505987894280229372194438315
515,1.791897374934041285238527726524
516,1.792288003082647857627861934662
517,1.792677875280880459612717304608
518,1.793066994452478121141312843691
519,1.793455363504269375531329012761
520,1.793842985326303240466985244105
521,1.794229862791976988546282502131
522,1.794615998758164983396983706670
523,1.795001396065345018336837503731
