Eigenstate,Potential Energy
1,0.500000000013564493181639521058050731
2,0.64623093773965655234384138367520397
3,0.73633760996506021403525085250588576
4,0.79966527835596485131748393492867194
5,0.8480465762240653200457333933731624
6,0.8870659983223142867691982840598615
7,0.9197208260880793849526233210024491
8,0.9477838458978879963328882480042297
9,0.9723835567577798648208838601207187
10,0.9942802128161778088952898226910629
11,1.0140093842140205447029672718625319
12,1.0319621662558656322444074980291531
13,1.0484326890074656573520250090256102
14,1.0636476501519207726665322677774077
15,1.0777854308038581604763517661501598
16,1.090988900379873758993933837638909
17,1.103374250060034525281683746681904
18,1.115037243794076595839653393088755
19,1.126057741405382074559110747370795
20,1.136503036224914935586339794552624
21,1.146430361172917842174093181134827
22,1.155888799917652034896105716608417
23,1.164920764811921816380042904256160
24,1.173563154293496589768283155969609
25,1.181848269681037163710675586798852
26,1.189804548981683440188877503086852
27,1.197457159853630204167541158044867
28,1.204828482965166927564409993623618
29,1.211938509196629680326128775880372
30,1.218805168482225673354968803864165
31,1.225444603942752458844580538253235
32,1.231871401882334229503162956341205
33,1.238098785912649854490075874454115
34,1.244138781717581024098654431763795
35,1.250002357632013809801358285613474
36,1.255699545175048067948731109984957
37,1.261239542873784567077087955491842
38,1.266630806083440975783170013995236
39,1.271881125011699198721936316690769
40,1.276997692759365764831595742638504
41,1.281987164872676698244250115862788
42,1.286855711647585700896159596071630
43,1.291609064219888130985209956943930
44,1.296252555306939245960106198227923
45,1.300791155329155609762794366984251
46,1.305229504526352281480484075739134
47,1.309571941590491790255882812454049
48,1.313822529258834537075960099542729
49,1.317985077246817720179710732911809
50,1.32206316284586716718607356884096
51,1.32606014946587949458237835142681
52,1.32997920336376680092415849708350
53,1.33382330876700598155945732706790
54,1.33759528157357362124162919973253
55,1.34129778178617192848875443340143
56,1.34493332481857660542768468506877
57,1.34850429179473858174605272028335
58,1.35201293894647435508830913992514
59,1.35546140620282573295991836333156
60,1.35885172505314526350427219714129
61,1.36218582575639941501467832033763
62,1.36546554396088055893231973283847
63,1.36869262679127692206229794844626
64,1.37186873845373719381930569300985
65,1.37499546540403163434292144589950
66,1.37807432111906419026964684063043
67,1.38110675050772783362393032292428
68,1.38409413399333917848276089259630
69,1.38703779129657575934232049256832
70,1.38993898494491108685191856022746
71,1.39279892353194389284969380209203
72,1.39561876474771973425540666143906
73,1.39839961819909011897242188611487
74,1.40114254803733546839868026934510
75,1.40384857540864713004369606877570
76,1.40651868074161409699367894607820
77,1.40915380588455769254898082264802
78,1.41175485610439168017807449381335
79,1.41432270195763843894018894010597
80,1.41685818104329371888446003508768
81,1.41936209964638314945692124976621
82,1.42183523428029222339327495168916
83,1.42427833313526274478582543777153
84,1.42669211743982443829688027348136
85,1.42907728274137114031729588108224
86,1.43143450011157512747963391605748
87,1.43376441728187566713549387284480
88,1.43606765971385449667099553998416
89,1.43834483160892743637289663528262
90,1.44059651686143812382857788399332
91,1.44282327995891840579246572454973
92,1.44502566683299162591235845174433
93,1.44720420566413279165351402189117
94,1.44935940764325667502026056013708
95,1.45149176769288374764589527708472
96,1.45360176515043202870524831817218
97,1.45568986441599858199463123229385
98,1.45775651556682152422928774210635
99,1.45980215494045993441923422251982
100,1.46182720568858271376841802080338
101,1.46383207830312814138757081622373
102,1.46581717111647029639010778548573
103,1.46778287077712060332754044263744
104,1.46972955270238549321041954945423
105,1.47165758150930809860400490403507
106,1.47356731142513113704408341414884
107,1.47545908667844005506297541133499
108,1.47733324187206626556138508205656
109,1.47919010233876171772758070854712
110,1.48102998448059361858034093326340
111,1.48285319609294226401358086002972
112,1.48466003667393550358708915489796
113,1.48645079772009782751375556458037
114,1.48822576300894330653730466472098
115,1.48998520886920116689198378756416
116,1.49172940443931445088745796849279
117,1.49345861191482050065536903040887
118,1.49517308678518097148845307246671
119,1.49687307806059536748684227003274
120,1.49855882848930624999114589514904
121,1.50023057476586600203772290878605
122,1.50188854773081611893874815227308
123,1.50353297256219780215767408128446
124,1.50516406895929495384204677543910
125,1.50678205131898110311251452591238
126,1.50838712890502659790930325542785
127,1.50997950601070181831105171854096
128,1.51155938211498958005099119449937
129,1.51312695203270782371736474035630
130,1.51468240605882530325770505917971
131,1.51622593010723758328851610558059
132,1.51775770584425567751107371421718
133,1.51927791081704787895020640288254
134,1.52078671857726405677390437101760
135,1.52228429880005358610923951851657
136,1.52377081739868438973969885142430
137,1.52524643663495726262536804228177
138,1.52671131522559603819689744247807
139,1.52816560844479204946850532155102
140,1.52960946822306589204702485313706
141,1.53104304324260493862406721698547
142,1.53246647902922698127121720526708
143,1.53387991804111172768900080244696
144,1.53528349975443469792323631842911
145,1.53667736074603388030344938773488
146,1.53806163477323163660695073700058
147,1.53943645285092614348626175224938
148,1.54080194332606769916423762088029
149,1.54215823194962169632687142098805
150,1.54350544194612190206670472198790
151,1.54484369408090995910582607656672
152,1.54617310672515140744294527193316
153,1.54749379591871717609224886771209
154,1.54880587543101444412985607004180
155,1.55010945681984510701376856641870
156,1.55140464948836971451326995751983
157,1.55269156074024792682364923673006
158,1.55397029583302730693962021257117
159,1.5552409580298441220928433082901
160,1.5565036486495024917632313611224
161,1.5577584671149903783549502722120
162,1.5590055110004918816084115998156
163,1.5602448760769506900176075266297
164,1.5614766563562393258176378972787
165,1.5627009441339827837299821720228
166,1.5639178300310870790242617782048
167,1.5651274030340199371857787885369
168,1.5663297505338863140722699418547
169,1.5675249583643438086203859290123
170,1.5687131108383977111874265106312
171,1.5698942907841158819590504205307
172,1.5710685795793013260506797735994
173,1.5722360571851578676032298791652
174,1.5733968021789847663569685913954
175,1.5745508917859342616062835859983
176,1.5756984019098617498579889655167
177,1.5768394071633018567003858113290
178,1.5779739808965995572489861059236
179,1.5791021952262227900844528862506
180,1.5802241210622875110512938840271
181,1.5813398281353178354731527660333
182,1.5824493850222689641396512967757
183,1.5835528591718359423082738913408
184,1.5846503169290724932268437344553
185,1.5857418235593417342693112577134
186,1.5868274432716197442735704192189
187,1.5879072392411757825478736835602
188,1.5889812736316445958294132931050
189,1.5900496076165145442516943524704
190,1.5911123014000471973642445018964
191,1.5921694142376476227219481965233
192,1.5932210044557017492117575605061
193,1.5942671294708991089289292947700
194,1.5953078458090542983489349623757
195,1.5963432091234450911167509678397
196,1.5973732742126808943158961323781
197,1.5983980950381159235000595646651
198,1.5994177247408212584281533513207
199,1.6004322156581286133178513847152
200,1.6014416193397597617782836492873
201,1.6024459865635525928002778281201
202,1.6034453673507971739150493033705
203,1.6044398109811924762030534048547
204,1.6054293660074353760140427249318
205,1.6064140802694518987100152526939
206,1.6073940009082837231274975480493
207,1.6083691743796358173843158595048
208,1.6093396464670994274350052877023
209,1.6103054622950561612020627356332
210,1.6112666663412746638816486141599
211,1.6122233024492072433797066900408
212,1.6131754138399966730001900382612
213,1.6141230431241975492728335953058
214,1.6150662323132271806036322351422
215,1.6160050228305452129721943750073
216,1.6169394555225759471260525920103
217,1.6178695706693773063068711562599
218,1.6187954079950654269509987837570
219,1.6197170066779981452926970486929
220,1.6206344053607298879902303560163
221,1.6215476421597358690568250315350
222,1.6224567546749227904540804410010
223,1.6233617799989196071710399133820
224,1.6242627547261634160790109701008
225,1.6251597149617830250963824841918
226,1.6260526963302837405960402326526
227,1.6269417339840420158934178722345
228,1.6278268626116117710060309384141
229,1.6287081164458495358193292752840
230,1.6295855292718631028867022532336
231,1.6304591344347854791175129299329
232,1.6313289648473845452572388615614
233,1.6321950529975034086473086875824
234,1.6330574309553475953135239466555
235,1.6339161303806122524659649912091
236,1.6347711825294590601612959885844
237,1.6356226182613464722368261374679
238,1.6364704680457150175094850192572
239,1.6373147619685330968012967842094
240,1.6381555297387054291894091389579
241,1.6389928006943484288099573311150
242,1.6398266038089353681461311789576
243,1.6406569676973153585531994840127
244,1.6414839206216078362361555299583
245,1.6423074904969769267697211913378
246,1.6431277048972882067070738311758
247,1.6439445910606492440413881875319
248,1.6447581758948414980526585618837
249,1.6455684859826385470335004567108
250,1.6463755475870210279926358482204
251,1.6471793866562861877410018802136
252,1.6479800288290548432533524072626
253,1.6487774994391808229013495257542
254,1.6495718235205625448080208938637
255,1.6503630258118606117459223947366
256,1.6511511307611215073384124398684
257,1.6519361625303137843012843425675
258,1.6527181449997731887761638971670
259,1.6534971017725635235988799256737
260,1.6542730561787536361998037510611
261,1.6550460312796108441860565873253
262,1.6558160498717155233301304610470
263,1.6565831344909957078443134022233
264,1.6573473074166871530914049769758
265,1.6581085906752173852564937325085
266,1.6588670060440159050095095382171
267,1.6596225750552537576877208694670
268,1.6603753189995125029943137408874
269,1.6611252589293868534093062485640
270,1.6618724156630167047340320315726
271,1.6626168097875578420024787475488
272,1.6633584616625852996003900045206
273,1.6640973914234368179831865919247
274,1.6648336189844936052867221068438
275,1.6655671640424022786867606573703
276,1.6662980460792362631356744386282
277,1.6670262843656041307665488975167
278,1.6677518979636966348883123217739
279,1.6684749057302839410164884460720
280,1.6691953263196551477851231228189
281,1.6699131781865079865429440461281
282,1.6706284795887861958817369311303
283,1.6713412485904677835231785062268
284,1.6720515030643013320790288188451
285,1.6727592606944971559248426989394
286,1.6734645389793693339124053896817
287,1.6741673552339336771915461796690
288,1.6748677265924580338969897858097
289,1.6755656700109695787441539280158
290,1.6762612022697198200406250802878
291,1.6769543399756051650333455798978
292,1.6776450995645459284774683594630
293,1.6783334973038276901811071175502
294,1.6790195492944000384198247949534
295,1.6797032714731347863455939901935
296,1.6803846796150512469293160537608
297,1.6810637893354984981411827551513
298,1.6817406160923039550996864001724
299,1.6824151751878850520238044584389
300,1.6830874817713257845707750695388
301,1.6837575508404185239741037091211
302,1.6844253972436731958910763384099
303,1.6850910356822909970652934725256
304,1.6857544807121062273101423188424
305,1.6864157467454976653160662485951
306,1.6870748480532687514781262956755
307,1.6877317987664937596934903426933
308,1.6883866128783374365539280483736
309,1.6890393042458441971950641198497
310,1.6896898865916972129452548377929
311,1.6903383735059509856733261917645
312,1.6909847784477349219636949317716
313,1.6916291147469292998644852980413
314,1.6922713956058154324783257203565
315,1.6929116341006993480351740742623
316,1.6935498431835103620856894614609
317,1.6941860356833720804163217993508
318,1.6948202243081511839274789561048
319,1.6954524216459811370330629834527
320,1.6960826401667608208359894173263
321,1.6967108922236320100103199650969
322,1.6973371900544318078171520160077
323,1.6979615457831235532898943116004
324,1.6985839714212051777246350318050
325,1.6992044788690967724529266958884
326,1.6998230799175056051196731956600
327,1.7004397862487714052179631126206
328,1.7010546094381891080715136741917
329,1.7016675609553140321194987183311
330,1.7022786521652459211658133100930
331,1.7028878943298932901651804876218
332,1.7034952986092191357661278820781
333,1.7041008760624683901442680187778
334,1.7047046376493753021276315614787
335,1.7053065942313550605245435559333
336,1.7059067565726757176837437589408
337,1.7065051353416132855105026395919
338,1.7071017411115910627688543316834
339,1.7076965843622992581546534535007
340,1.7082896754808010004575993019257
341,1.7088810247626204493675872354895
342,1.7094706424128155040525779104627
343,1.7100585385470347472749116458046
344,1.7106447231925586187307698978823
345,1.7112292062893266369245880451970
346,1.7118119976909481443510055180556
347,1.7123931071657001413205735970185
348,1.7129725443975090201306481770268
349,1.7135503189869197444839736664436
350,1.7141264404520500164727536532642
351,1.7147009182295315187100129730609
352,1.7152737616754379139510642324387
353,1.7158449800661988865612610204822
354,1.7164145825995016402845163147890
355,1.7169825783951802175746206175666
356,1.7175489764960908502565614027939
357,1.7181137858689765805409208992692
358,1.7186770154053203963776109937301
359,1.7192386739221826262725924936301
360,1.7197987701630315314723505354525
361,1.7203573127985588403705592099557
362,1.7209143104274867067229684814816
363,1.7214697715773606872697890217698
364,1.7220237047053337627456861495075
365,1.7225761181989396386313807375509
366,1.7231270203768542033034340236028
367,1.7236764194896480355797214553159
368,1.7242243237205267503772665980914
369,1.7247707411860638150154674114976
370,1.7253156799369215493281086942515
371,1.7258591479585631628817600977243
372,1.7264011531719547857679012589941
373,1.7269417034342574596733164619072
374,1.7274808065395133976968579176458
375,1.7280184702193172044712857889059
376,1.7285547021434835127947201889030
377,1.7290895099207028259712205462978
378,1.7296229010991887332610189132613
379,1.7301548831673183382309824099409
380,1.7306854635542626567591175501550
381,1.7312146496306098601177105425921
382,1.7317424487089784812940381486963
383,1.7322688680446252591987901877075
384,1.7327939148360425844517238581175
385,1.7333175962255491679875176238190
386,1.7338399192998745911225529591765
387,1.7343608910907334864063038799020
388,1.7348805185753932860423790246990
389,1.7353988086772362125510424582344
390,1.7359157682663127007644612272369
391,1.7364314041598865680799665749864
392,1.7369457231229755413323205765670
393,1.7374587318688846137552519042751
394,1.7379704370597308131119762211684
395,1.7384808453069622378503527829573
396,1.7389899631718710121326338459600
397,1.7394977971660997896298207258581
398,1.7400043537521418141970602003349
399,1.7405096393438331032028412879402
400,1.7410136603068410534512180455286
401,1.7415164229591455185978463208331
402,1.7420179335715131032575487956171
403,1.7425181983679674945243490760835
404,1.7430172235262537239741986964076
405,1.7435150151782938255767772989850
406,1.7440115794106399985311843622671
407,1.7445069222649223917263730819423
408,1.7450010497382890130005651956504
409,1.7454939677838406242572374735464
410,1.7459856823110631368959505742473
411,1.7464761991862517675564363366488
412,1.7469655242329305367452050784096
413,1.7474536632322681893842255731988
414,1.7479406219234869611072222894786
415,1.7484264060042684742459436062238
416,1.7489110211311531931193789445056
417,1.7493944729199362870925640142963
418,1.7498767669460570646208288154539
419,1.7503579087449862567711600608393
420,1.7508379038126061321220899417882
421,1.7513167576055873952056408476087
422,1.7517944755417621500729463217764
423,1.7522710630004907651034893735066
424,1.7527465253230262527613076186746
425,1.7532208678128725436374004443148
426,1.7536940957361402615970129094079
427,1.7541662143218974846398333155193
428,1.7546372287625155051388564580487
429,1.7551071442140135018232208222388
430,1.7555759657963949855879475775187
431,1.7560436985939835227616666802006
432,1.7565103476557548853229453142940
433,1.7569759179956609659384640461470
434,1.7574404145929565557355263519836
435,1.7579038423925168084586412614188
436,1.7583662063051532919749337067854
437,1.7588275112079267884723793839938
438,1.7592877619444558253888541762981
439,1.7597469633252216183498113512015
440,1.7602051201278704973008228199940
441,1.7606622370975109756603342705658
442,1.7611183189470090261106288060942
443,1.7615733703572812106941559534607
444,1.7620273959775802845569704297097
445,1.7624804004257826039685279601198
446,1.7629323882886683629370876092285
447,1.7633833641222018275587147150688
448,1.7638333324518047862701890255561
449,1.7642822977726310564793012374087
450,1.7647302645498341999814021961110
451,1.7651772372188359502239725136152
452,1.7656232201855881927346461842465
453,1.7660682178268342417508818120770
454,1.7665122344903658019662429432488
455,1.7669552744952792392313571174132
456,1.7673973421322264571733933727297
457,1.7678384416636650754060959313071
458,1.7682785773241043051908609513938
459,1.7687177533203490364372103884961
460,1.7691559738317417783493207859317
461,1.7695932430104003034058532151497
462,1.7700295649814542076860057065781
463,1.7704649438432789912746911332078
464,1.7708993836677258196142933701598
465,1.7713328885003509344992195423043
466,1.7717654623606418453712210341480
467,1.7721971092422395813915492703041
468,1.7726278331131620198904424924906
469,1.7730576379160207678504137494327
470,1.7734865275682391209226706569706
471,1.7739145059622653670416297325703
472,1.7743415769657857322075575303431
473,1.7747677444219323192967851210743
474,1.7751930121494935438501668704499
475,1.7756173839431159895508731901675
476,1.7760408635735101971524662908508
477,1.7764634547876507198088361480800
478,1.7768851613089751207486928909158
479,1.7773059868375808026322373681344
480,1.7777259350504200631239028602216
481,1.7781450096014919275079110238501
482,1.7785632141220343270850067610795
483,1.7789805522207120032974065022248
484,1.7793970274838029572864372185559
485,1.7798126434753849217071862289765
486,1.7802274037375164395408571162884
487,1.7806413117904193986337314061372
488,1.7810543711326576183946572092483
489,1.7814665852413147166950639882540
490,1.7818779575721691199596823315103
491,1.7822884915598683505905395781798
492,1.7826981906181011797690107283022
493,1.7831070581397676205001185057146
494,1.7835150974971478547919898387529
495,1.7839223120420682873168283182779
496,1.7843287051060679698224054894492
497,1.7847342800005610816607725776841
498,1.7851390400169994115301861540362
499,1.7855429884270323375919182051327
500,1.785946128482666436271437909228
501,1.786348463416420465589889894497
502,1.786749996441483178010405386432
503,1.787150730751865430724749261514
504,1.787550669522554437014687446391
505,1.787949815909663005944616440570
506,1.788348173050579500261619706798
507,1.788745744064116360313811326907
508,1.789142532050656833726149018989
509,1.789538540092298141499747378784
510,1.789933771252997133544106406925
511,1.790328228578711664488063669446
512,1.790721915097541589732566121524
513,1.791114833819867997249221748474
514,1.791506987738491351353158586631
515,1.791898379828768922514157677218
516,1.792289013048749713360958589090
517,1.792678890339307955434799717547
518,1.793068014624276961895833258732
519,1.793456388810580117944501779177
520,1.793844015788361865778965256772
521,1.794230898431115479135426126044
522,1.794617039595811903430420199013
523,1.795002442123026098480947242009
