Eigenstate,Potential Energy
1,0.500000000016339421258456669964143996
2,0.64623093775776980821870360716909619
3,0.73633761001826631166801680100757478
4,0.79966527846678670662877500991926840
5,0.8480465764160306333365976510874884
6,0.8870659986193620019296945478680425
7,0.9197208265143408713642692875598472
8,0.9477838464775956762131604402549229
9,0.9723835575152246178704982535657136
10,0.9942802137756872547162122692549303
11,1.0140093853999471534525187164626942
12,1.0319621676925798435474076525834600
13,1.0484326907193517256668807327300707
14,1.0636476521633741816701295205811100
15,1.0777854331392839839492434999499316
16,1.090988903063685616192194025560426
17,1.103374253116653922957502494143461
18,1.115037247247932529501847459706069
19,1.126057745280910808256959979384891
20,1.136503040546559907574846802946352
21,1.146430365965129661232382981795957
22,1.155888805204888543175270104678947
23,1.164920770618648201916281680950680
24,1.173563160644185536650538433359424
25,1.181848276600169031203101938453144
26,1.189804556493746464409493146219502
27,1.197457167983120717550566851298219
28,1.204828491736589592500879413689511
29,1.211938518634497734226898607040224
30,1.218805178611061183006787948369253
31,1.225444614787086582397551104284979
32,1.231871413466707484780945613465957
33,1.238098798261612392583455808808799
34,1.244138794855692907410461376586630
35,1.250002371583845293871902904473233
36,1.255699559965179886517234478044353
37,1.261239558526808219934380172458226
38,1.266630822623959019050361579623086
39,1.271881142464325537253431019664016
40,1.276997711148725946492186701615921
41,1.281987184223408209851743982567109
42,1.286855731984338265655040904083406
43,1.291609085567324007264834814705072
44,1.296252577689733527294009606492556
45,1.300791178771996525964868680508143
46,1.305229529053941500789768270352521
47,1.309571967227544722435091685807589
48,1.313822556030080637400148381534084
49,1.317985105177000794260979068752503
50,1.32206319195974567658829949829691
51,1.32606017978822686318682438159279
52,1.32997923491937172201268597324277
53,1.33382334158067272558710576121257
54,1.33759531567012234427465808785655
55,1.34129781719043898128798490618820
56,1.34493336155541484316021715747114
57,1.34850432988901767431124706399109
58,1.35201297842308109804637473107105
59,1.35546144708666435905359132035110
60,1.35885176736913775476594035572230
61,1.36218586952948581545295794819861
62,1.36546558921601928779354605204187
63,1.36869267355344508766366452956243
64,1.37186878674793090795152524369440
65,1.37499551525526632724129236370257
66,1.37807437255237492615329517095214
67,1.38110680354816962680380215282843
68,1.38409418866598731003964888076348
69,1.38703784762652609437685670801566
70,1.38993904295728039230902024912684
71,1.39279898325187015592048945861234
72,1.39561882620036248136011142502973
73,1.39839968140963073532807081363685
74,1.40114261303097751817599594970991
75,1.40384864221061667711772545145717
76,1.40651874937716002629313414852988
77,1.40915387637895203200952022094384
78,1.41175492848292992330501765355815
79,1.41432277624563986798639485397771
80,1.41685825726610172864932883612501
81,1.41936217782936557171267113675384
82,1.42183531444884165194485189760139
83,1.42427841531479686117096000316559
84,1.42669220165578633813296983670505
85,1.42907736901922966030195187138917
86,1.43143458847682517305185671090097
87,1.43376450776003854080458796129257
88,1.43606775233047822702044112886999
89,1.43834492638958710774652209121952
90,1.44059661383173620670647884233063
91,1.44282337914448508786422081209074
92,1.44502576825948514385518894107369
93,1.44720430935723976362312564378821
94,1.44935951362869243386219004818783
95,1.45149187599639267483527779226928
96,1.45360187579778788902298246042080
97,1.45568997743300485894802377914807
98,1.45775663097931175622529636900160
99,1.45980227277429805169853186077908
100,1.46182732596966337610854846891182
101,1.46383220105737707658354020807224
102,1.46581729636984463952082220807722
103,1.46778299855560923681654958326066
104,1.46972968303200938768950891508354
105,1.47165771441612065458821577509623
106,1.47356744693521852742681022273789
107,1.47545922481792156843984459143327
108,1.47733338266709465039167460308928
109,1.47919024581552352734199209324624
110,1.48103013066530955704399582807027
111,1.48285334501186753285315692620242
112,1.48466018835336014939107475351391
113,1.48645095218634709041484253970784
114,1.48822592028837796958600211459996
115,1.48998536898821790633057524789347
116,1.49172956742434618733348587307766
117,1.49345877779233675120386989877643
118,1.49517325558168820274223006197235
119,1.49687324980263734952409484612111
120,1.49855900320346441127984241428274
121,1.50023075247875978530614343107623
122,1.50188872846910333801167348911491
123,1.50353315635257499976775150849202
124,1.50516425582849776042591089660018
125,1.50678224129378459660128924596242
126,1.50838732201224566452315964969845
127,1.50997970227719151436755205992379
128,1.51155958156764549479699644020638
129,1.51312715469846644319433217117632
130,1.51468261196466437521024869970084
131,1.51622613928017648312616294426989
132,1.51775791831135577533320208640658
133,1.51927812660541290764417433610172
134,1.52078693771404048119647266556357
135,1.52228452131243097336141010238872
136,1.52377104331389578054515063139213
137,1.52524666598027954382273311976985
138,1.52671154802835031635616343178588
139,1.52816584473234402564188706327212
140,1.52960970802282623766469794123153
141,1.53104328658202967254521311040840
142,1.53246672593581784800088116804115
143,1.53388016854241657677131884796261
144,1.53528375387804786452164502731271
145,1.53667761851959656697853791914033
146,1.53806189622443229630268643149967
147,1.53943671800750086373535757145357
148,1.54080221221580058752349637770758
149,1.54215850460034526705340881264314
150,1.54350571838571746404597172667104
151,1.54484397433730800504246864702112
152,1.54617339082633200432554336964297
153,1.54749408389271035694306532648924
154,1.54880616730590060105077269756484
155,1.55010975262375538553965327029021
156,1.55140494924948640928406741629046
157,1.55269186448680487858656863620881
158,1.55397060359331030089284219320215
159,1.5552412698321912875822218478207
160,1.5565039645223047033435404617157
161,1.5577587870866916582272737904187
162,1.5590058350995898034453877073311
163,1.5602452043319967841882196607404
164,1.5614769887958394860233616758600
165,1.5627012807867976750641867666077
166,1.5639181709258325474667517829398
167,1.5651277481994674205445118812955
168,1.5663300999988632543842884641473
169,1.5675253121577340660241036130407
170,1.5687134689891419792784795623670
171,1.5698946533212121046419583868870
172,1.5710689465318051158986781653584
173,1.5722364285821829257386692401056
174,1.5733971780497033038647422664008
175,1.5745512721595774224928611947008
176,1.5756987868157200355686682873877
177,1.5768397966307255522074294170367
178,1.5779743749549991587234481058444
179,1.5791025939050694341644896291257
180,1.5802245243911134057199234194683
181,1.5813402361437166925583977619425
182,1.5824497977398964334501667137084
183,1.5835532766284100474175839856040
184,1.5846507391543740689193992442485
185,1.5857422505832148656616839754703
186,1.5868278751239722076241293302439
187,1.5879076759519794877684066168364
188,1.5889817152309360307122386538854
189,1.5900500541343952204258468493512
190,1.5911127528666840979944443681716
191,1.5921698706832736519641348388220
192,1.5932214659106161834390370427387
193,1.5942675959654680497418701044234
194,1.5953083173737111273842494587006
195,1.5963436857886909266684672827321
196,1.5973737560090850497832056650568
197,1.5983985819963163676761484144302
198,1.5994182168915250776443547319575
199,1.6004327130321124754576051988048
200,1.6014421219678703821754326043858
201,1.6024464944767072020363310215534
202,1.6034458805799839875301696722852
203,1.6044403295574711663355356373338
204,1.6054298899619375449832490715017
205,1.6064146096333815545577169508077
206,1.6073945357129177571327697697890
207,1.6083697146563244835671246938038
208,1.6093401922472668240638096639783
209,1.6103060136102007143208046809463
210,1.6112672232229696128716062833429
211,1.6122238649291011285717859945033
212,1.6131759819498138253533314604015
213,1.6141236168957385821343194689944
214,1.6150668117783694835671555812762
215,1.6160056080212434478496720883205
216,1.6169400464708625460492807464446
217,1.6178701674073629719751819012304
218,1.6187960105549396350412059325556
219,1.6197176150920296490477540199195
220,1.6206350196612672250030630166614
221,1.6215482623792078702659566365804
222,1.6224573808458390913677865203105
223,1.6233624121538711613368347402589
224,1.6242633928978230108153761266159
225,1.6251603591829057995038466010224
226,1.6260533466337077058646947738471
227,1.6269423904026885779241852220198
228,1.6278275251784862553630482812355
229,1.6287087851940417150309552510128
230,1.6295862042345477261127542353752
231,1.6304598156452228042004744249670
232,1.6313296523389208731752740132462
233,1.6321957468035716203870533690442
234,1.6330581311094676911807620438862
235,1.6339168369163918938523821910683
236,1.6347718954805941137856389259239
237,1.6356233376616215568789402595899
238,1.6364711939290040532558038834594
239,1.6373154943687998568204691861403
240,1.6381562686900040940569454403628
241,1.6389935462308241434007948567688
242,1.6398273559648248011142611483303
243,1.6406577265069472644175548423732
244,1.6414846861194036200920949543400
245,1.6423082627174512116456227995084
246,1.6431284838750494035856453815435
247,1.6439453768304001245654422081244
248,1.6447589684913797699352422162451
249,1.6455692854408574321924039675803
250,1.6463763539419098434294709304711
251,1.6471801999429309291851108938221
252,1.6479808490826387715910335960395
253,1.6487783266949850534109702095806
254,1.6495726578139666392217512539620
255,1.6503638671783431731589516584078
256,1.6511519792362607779867151279152
257,1.6519370181497882462290643314844
258,1.6527190077993621674143233219453
259,1.6534979717881477942759504033738
260,1.6542739334463160336070141043398
261,1.6550469158352368748182484732529
262,1.6558169417515939809245067158121
263,1.6565840337314192918390723321201
264,1.6573482140540530901265052835138
265,1.6581095047460280537389646138649
266,1.6588679275848794627658555300214
267,1.6596235041028847727261261861559
268,1.6603762555907325873995707232997
269,1.6611262031011253003934836549842
270,1.6618733674523111288661097690113
271,1.6626177692315548226403238001147
272,1.6633594287985410275486334818828
273,1.6640983662887177454007067563297
274,1.6648346016165770988676557160934
275,1.6655681544788772761390615145394
276,1.6662990443578039329815045947114
277,1.6670272905240785354889020467317
278,1.6677529120400053974484558370540
279,1.6684759277624689147670120689544
280,1.6691963563458730898035313870428
281,1.6699142162450312344109567264578
282,1.6706295257180033479356288397146
283,1.6713423028288843826005970488572
284,1.6720525654505405527880895486678
285,1.6727603312673004954613112832716
286,1.6734656177775973064510701413566
287,1.6741684422965665118780747910048
288,1.6748688219585963764667032923109
289,1.6755667737198351967944103368237
290,1.6762623143606563119836459771309
291,1.6769554604880786727565570132485
292,1.6776462285381458537386522153104
293,1.6783346347782674147657769621180
294,1.6790206953095176480885483967309
295,1.6797044260688937985990989699298
296,1.6803858428315413426195013585986
297,1.6810649612129362569563415722635
298,1.6817417966710335949524251831890
299,1.6824163645083791723704303070236
300,1.6830886798741861136910444238078
301,1.6837587577663766702405670467652
302,1.6844266130335914030573526542502
303,1.6850922603771629036029122706970
304,1.6857557143530576298237775075520
305,1.6864169893737872860672422571577
306,1.6870760997102890100476636602646
307,1.6877330594937715488132482759829
308,1.6883878827175349021385903827989
309,1.6890405832387595226049718358828
310,1.6896911747802654075115252913793
311,1.6903396709322446775166123116975
312,1.6909860851539651551385450110389
313,1.6916304307754463358610148826702
314,1.6922727209991095561135567394108
315,1.6929129689014016777665003571121
316,1.6935511874343936647790391550844
317,1.6941873894273515906021170486356
318,1.6948215875882854275775905927297
319,1.6954537945054727598921913751267
320,1.6960840226489574213412124605048
321,1.6967122843720269768328883409807
322,1.6973385919126651620606639518987
323,1.6979629573949827953794765404144
324,1.6985853928306261390219340392915
325,1.6992059101201644716319094549001
326,1.6998245210544551093387508365900
327,1.7004412373159886961238822378953
328,1.7010560704802119526710851858216
329,1.7016690320168328585552003320623
330,1.7022801332911046994319411904804
331,1.7028893855650904178011871957458
332,1.7034967999989083285642043601158
333,1.7041023876519595779086330379198
334,1.7047061594841355295231029210211
335,1.7053081263570093930523607978188
336,1.7059082990350081528228500282041
337,1.7065066881865676690630086813754
338,1.7071033043852720104483648333965
339,1.7076981581109730824567518617665
340,1.7082912597508966428519783253093
341,1.7088826196007304178515490742041
342,1.7094722478656968161062038736108
343,1.7100601546616098782581681953971
344,1.7106463500159164557635237454527
345,1.7112308438687234382904939197243
346,1.7118136460738085044668117461086
347,1.7123947663996179613125036855028
348,1.7129742145302484840601610176171
349,1.7135520000664163012651595387106
350,1.7141281325264113675243407289183
351,1.7147026213470386113850608413438
352,1.7152754758845459407878570446392
353,1.7158467054155382903992447262461
354,1.7164163191378791252895662509254
355,1.7169843261715797662181333541632
356,1.7175507355596747462933622903711
357,1.7181155562690864380314050621886
358,1.7186787971914781947995689356076
359,1.7192404671440917517690040595493
360,1.7198005748705778242814932355501
361,1.7203591290418116484852618767336
362,1.7209161382566999458263227669365
363,1.7214716110429739069946990713056
364,1.7220255558579732193065014998783
365,1.7225779810894193738758977939187
366,1.7231288950561771302340124414459
367,1.7236783060090070303928829741174
368,1.7242262221313057510712024262048
369,1.7247726515398389266155511774501
370,1.7253176022854621557809919601170
371,1.7258610823538330456687105369999
372,1.7264030996661132492888063775383
373,1.7269436620796604634530485887269
374,1.7274827773887146954661764395118
375,1.7280204533250694901747659519954
376,1.7285566975587395735789567861361
377,1.7290915176986167022065599672767
378,1.7296249212931168856508639724236
379,1.7301569158308208220631830091049
380,1.7306875087411043033540046832065
381,1.7312167073947614655284315512785
382,1.7317445191046180023147103288486
383,1.7322709511261390167368332737555
384,1.7327960106580264743211306690463
385,1.7333197048428098791803146494558
386,1.7338420407674308316160118004555
387,1.7343630254638172165642813430304
388,1.7348826659094509596694087734744
389,1.7354009690279300256583166043177
390,1.7359179416895218481074751666378
391,1.7364335907117085075281205881520
392,1.7369479228597272661310850033098
393,1.7374609448471039327421897407449
394,1.7379726633361776389484556939225
395,1.7384830849386198833312812307729
396,1.7389922162159474946370052644579
397,1.7395000636800291437754998977895
398,1.7400066337935854127637933679285
399,1.7405119329706809863879828785163
400,1.7410159675772132665231870644988
401,1.7415187439313934580130294932446
402,1.7420202683042208713067870857333
403,1.7425205469199532625757979645073
404,1.7430195859565711043799723521163
405,1.7435173915462332523112416612206
406,1.7440139697757301166295817677141
407,1.7445093266869314555926655826275
408,1.7450034682772262936545799918503
409,1.7454964004999578255912134868074
410,1.7459881292648558210116049417207
411,1.7464786604384607892541084234362
412,1.7469679998445434872373014742375
413,1.7474561532645208493058704303183
414,1.7479431264378647628976351843199
415,1.7484289250625079739746934611428
416,1.7489135547952435518323818880091
417,1.7493970212521207617531452436808
418,1.7498793300088345087223161339176
419,1.7503604866011126306975832855710
420,1.7508404965250960233346574724290
421,1.7513193652377155483330094525960
422,1.7517970981570650069844755720414
423,1.7522737006627680150448948623555
424,1.7527491780963423926330472716519
425,1.7532235357615584484969771945409
426,1.7536967789247947654668042939782
427,1.7541689128153889717030559799275
428,1.7546399426259835114068884707769
429,1.7551098735128703273583058320040
430,1.7555787105963273173660219229628
431,1.7560464589609540682607262586656
432,1.7565131236560040169235568034061
433,1.7569787096957083762230792205309
434,1.7574432220596029237747827863685
435,1.7579066656928454771732598877799
436,1.7583690455065319566624576644878
437,1.7588303663780091965893784004473
438,1.7592906331511834876794928972640
439,1.7597498506368255314126921407468
440,1.7602080236128728776870118184251
441,1.7606651568247270055960728601080
442,1.7611212549855486109393152272674
443,1.7615763227765507481328248309012
444,1.7620303648472844458636618547464
445,1.7624833858159261271174757161172
446,1.7629353902695578578997867758095
447,1.7633863827644475937898466132472
448,1.7638363678263226424981276470414
449,1.7642853499506441829019953988755
450,1.7647333336028749929692775187932
451,1.7651803232187478896324010625970
452,1.7656263232045277219296651230339
453,1.7660713379372726604526502276604
454,1.7665153717650911720156377070581
455,1.7669584290073983033863017380988
456,1.7674005139551665710423591621943
457,1.7678416308711761526272228177783
458,1.7682817839902607759660948811702
459,1.7687209775195518195322712515530
460,1.7691592156387202666706507054021
461,1.7695965025002143632673875374475
462,1.7700328422294961918794180611883
463,1.7704682389252757660576464757048
464,1.7709026966597408057327424226616
465,1.7713362194787861623604610974018
466,1.7717688114022400244857773799316
467,1.7722004764240861842028824375953
468,1.7726312185126873801129750280815
469,1.7730610416110021934369563688722
470,1.7734899496368030217839153254934
471,1.7739179464828893976414639054003
472,1.7743450360173009491588989567289
473,1.7747712220835253540841756632939
474,1.7751965085007087908061736792759
475,1.7756208990638578092149609129854
476,1.7760443975440451351420414044275
477,1.7764670076886097413331702829770
478,1.7768887332213558608982542350050
479,1.7773095778427498325766877688680
480,1.7777295452301151723534897366733
481,1.7781486390378244222545100175968
482,1.7785668628974913450599514505767
483,1.7789842204181588448848915567546
484,1.7794007151864854333325866487294
485,1.7798163507669317180459734973961
486,1.7802311307019414983998488108012
487,1.7806450585121243170636414198770
488,1.7810581376964340638682340081796
489,1.7814703717323468600224815522030
490,1.7818817640760360856684725400503
491,1.7822923181625466849201394191915
492,1.7827020374059673364311403657504
493,1.7831109251996004643578875805253
494,1.7835189849161311836116507309933
495,1.7839262199077933717483007862813
496,1.7843326335065361117658548666353
497,1.7847382290241861911778184676238
498,1.7851430097526106024603967890240
499,1.7855469789638765420365548911256
500,1.785950139910411038107981216676
501,1.786352495825155953182661676214
502,1.786754049921725816283876098027
503,1.787154805394559952768404079357
504,1.787554765419076755389324797751
505,1.787953933151822943862060945880
506,1.788352311730623542811389425573
507,1.788749904274730425912083911792
508,1.789146713884969065964003115033
509,1.789542743643881721569416319013
510,1.789937996615873113424168465290
511,1.790332475847351821069491890657
512,1.790726184366871300070357546052
513,1.791119125185269135125371496137
514,1.791511301295805205338941323649
515,1.791902715674299135721909964863
516,1.792293371279265245076613483554
517,1.792683271052046064825284420159
518,1.793072417916946213986763191897
519,1.793460814781363412065885597078
520,1.793848464535919486678545381786
521,1.794235370054588170961281587660
522,1.794621534194823966786649858033
523,1.795006959797688510762009853457
