Eigenstate,Potential Energy
1,0.500000000034373993661840260359448358
2,0.64623093787549008296152768568283665
3,0.73633761036406004957747348229572067
4,0.79966527918703537808610576283398459
5,0.8480465776636482793041521680665629
6,0.8870660005499385584820361096236034
7,0.9197208292847208602080490437031602
8,0.9477838502452851782827724373333193
9,0.9723835624381152567954604159991803
10,0.9942802200119158678958326653343067
11,1.0140093931078193385395996146520830
12,1.0319621770305260547575407110335967
13,1.0484327018459010902249920243055333
14,1.0636476652371385141173784489985897
15,1.0777854483189479525241332362485377
16,1.090988920508000773546381149467931
17,1.103374272984435250484370771296237
18,1.115037269698056667276121577140217
19,1.126057770472315446043503831901939
20,1.136503068638243994826647566527690
21,1.146430397116154207171790765781924
22,1.155888839574377850223301106702513
23,1.164920808365791422916007530321794
24,1.173563201928238477873520433876192
25,1.181848321580456144647734979352735
26,1.189804605329662987854954074438373
27,1.197457220834134931398956419497948
28,1.204828548762245170025376228685210
29,1.211938579994416167365265391266782
30,1.218805244464944269911679807448723
31,1.225444685294718965994733979097237
32,1.231871488787959233881040725714701
33,1.238098878556441618842979419573752
34,1.244138880284148412785872721820773
35,1.250002462306069244257991684890090
36,1.255699656141410508082287854382583
37,1.261239660317382515313333981923121
38,1.266630930189315501073520911288259
39,1.271881255965006978302270881378833
40,1.276997830745382141907797830522469
41,1.281987310076798754092687758955230
42,1.286855864255335340122944182680351
43,1.291609224416915178898063558161449
44,1.296252723279024557180041360782457
45,1.300791331262214187346747247737404
46,1.305229688606436405946105983532522
47,1.309572134003794158000250780038644
48,1.313822730191691407764667229730939
49,1.317985286885712072754317657032445
50,1.32206338137743186419863412716032
51,1.32606037707690045461750397080794
52,1.32997944024118617891331454173292
53,1.33382355509792535683015118621692
54,1.33759553754525719317687387541385
55,1.34129804758604971970044808835229
56,1.34493360063424767237206737499944
57,1.34850457781397423273068310885810
58,1.35201323535722137563870421619977
59,1.35546171319320961853018768352546
60,1.35885204281147345953043835140944
61,1.36218615447116456432195434344072
62,1.36546588382076375651876324294460
63,1.36869297798515097729110527552426
64,1.37186910117066990006073930386724
65,1.37499583983328904611473384484704
66,1.37807470745011390793178603928866
67,1.38110714893024229568959154240517
68,1.38409454469719896161343652837198
69,1.38703821447187288609966231573286
70,1.38993942078195234128364091637974
71,1.39279937222125414399111168532493
72,1.39561922648004526763178212344103
73,1.39840009316540197619090945902497
74,1.40114303642883279492171435657381
75,1.40384907741676053123863346527176
76,1.40651919655800900255613242637306
77,1.40915433570113772939977625393397
78,1.41175540011330205393606002751961
79,1.41432326035126932407527020191630
80,1.41685875401428365765716470495007
81,1.41936268738762245975273806573709
82,1.42183583698492641556173240690115
83,1.42427895099669594759591077340099
84,1.42669275065172283412197717014563
85,1.42907793149766640966432720640640
86,1.43143516460646790297844590051316
87,1.43376509770983899710594632607412
88,1.43606835626963731838646625049563
89,1.43834554448755805914015487783500
90,1.44059724625822772200518140182536
91,1.44282402606946452186402339870230
92,1.44502642985318168375308127978329
93,1.44720498579014762009459491114148
94,1.44936020507157404185168442249313
95,1.45149258262028190417833242766276
96,1.45360259777399326501964462084332
97,1.45569071493311279300822427866223
98,1.45775738417518978670761448157825
99,1.45980304183809809506480638275839
100,1.46182811107382498851758801855226
101,1.46383300237463072604813851256544
102,1.46581811407321498875311695746137
103,1.46778383281841843688759441057623
104,1.46973053402788038262992773369499
105,1.47165858231898049705751932309450
106,1.47356833191930170557989662428538
107,1.47546012705777334412005686937744
108,1.47733430233757440878060439477951
109,1.47919118309180813819715822583740
110,1.48103108572289674765629591322238
111,1.48285431802657927285691523324519
112,1.48466117950134604756036957884826
113,1.48645196164408780358061695746772
114,1.48822694823268862380938848078591
115,1.48998641559625153046873113601321
116,1.49173063287359715913508793750298
117,1.49345986226064425607232457772517
118,1.49517435924723970530556370656266
119,1.49687437284397207815134658600406
120,1.49856014579947685568471903893611
121,1.50023191480870320737960853597996
122,1.50188991071259329602601785788714
123,1.50353435868959288609571983505253
124,1.50516547843939435291923562053796
125,1.50678348435928362377405836745903
126,1.50838858571344738468634278287454
127,1.50998098679557630886196644283864
128,1.51156088708507747547300778714959
129,1.51312848139719707428746084953907
130,1.51468396002733610976295497831212
131,1.51622750888982641410693015601109
132,1.51775930965141930160529667937795
133,1.51927953985972741493713167571878
134,1.52078837306684903823467054337482
135,1.52228597894838604330504795600895
136,1.52377252341806294789983373604122
137,1.52524816873814125697518077961219
138,1.52671307362580964589444181881577
139,1.52816739335572843861969217912198
140,1.52961127985889138797038777852167
141,1.53104488181796320753717814175787
142,1.53246834475924323157221837260094
143,1.53388181114139692900766436498690
144,1.53528542044108981811735959644223
145,1.53667930923565414057738226766976
146,1.53806361128291078493046796299112
147,1.53943845759826074649310758412194
148,1.54080397652916145271088097543928
149,1.54216029382708975489339493213346
150,1.54350753271709522718283694529543
151,1.54484581396503968698662769249483
152,1.54617525594261323601975478853525
153,1.54749597469021577162594276848429
154,1.54880808397778786759465130704453
155,1.55011169536366926044128334766837
156,1.55140691825156280748789316741940
157,1.55269385994567496332148282089133
158,1.55397262570410459270481247995674
159,1.5552433187905437927464460379038
160,1.5565060405243570618411091338834
161,1.5577608903290973114727655347318
162,1.5590079657795181819531068866055
163,1.5602473626471375153661780697614
164,1.5614791749444066222856142061121
165,1.5627034949675339424535077097762
166,1.5639204133380136149809777103210
167,1.5651300190429061903614507073862
168,1.5663323994739141731815697872215
169,1.5675276404652974575916757133523
170,1.5687158263306683986232173667070
171,1.5698970398987067137851180168527
172,1.5710713625478320815686011055537
173,1.5722388742398698391626438469457
174,1.5733996535527456228655120785135
175,1.5745537777122429360969082734311
176,1.5757013226228533513348899093331
177,1.5768423628977526064865362540658
178,1.5779769718879317500600224728466
179,1.5791052217105097800552934298345
180,1.5802271832762587229437080779533
181,1.5813429263163638012942372439381
182,1.5824525194084463854028886792072
183,1.5835560300018727781707754898426
184,1.5846535244423730747381039861197
185,1.5857450679959919049687898713981
186,1.5868307248723920273759530064275
187,1.5879105582475345749572215003768
188,1.5889846302857513892248902265237
189,1.5900530021612331734897474892182
190,1.5911157340789491164439789298579
191,1.5921728852950172085623388188862
192,1.5932245141365416334914925931075
193,1.5942706780209355382415112513893
194,1.5953114334747425229278499048705
195,1.5963468361519747823874276361156
196,1.5973769408519815915333841225669
197,1.5984018015368625097333927576785
198,1.5994214713484394661544491360503
199,1.6004360026248005598914873476813
200,1.6014454469164295150424791377950
201,1.6024498550019317671106372725211
202,1.6034492769033705568470881093314
203,1.6044437619012236862175153676119
204,1.6054333585489725513565708937791
205,1.6064181146873334178235739283222
206,1.6073980774581439568586388210456
207,1.6083732933179109132664604799954
208,1.6093438080510331263344116003727
209,1.6103096667827056466145495831572
210,1.6112709139915164441704301767088
211,1.6122275935217430672472819072261
212,1.6131797485953594784895683626438
213,1.6141274218237574465960891316596
214,1.6150706552191974690979810587830
215,1.6160094902059884324866566031237
216,1.6169439676314099641441747077200
217,1.6178741277763814351135662968991
218,1.6188000103658865861542921654196
219,1.6197216545791570500137968113138
220,1.6206390990596272780380255413723
221,1.6215523819246587734055962626683
222,1.6224615407750508283461261492185
223,1.6233666127043313261684164958998
224,1.6242676343078426673916474744206
225,1.6251646416916253765166693962797
226,1.6260576704811029273726910163543
227,1.6269467558295764298803961644958
228,1.6278319324265309884253808190639
229,1.6287132345057608839795732136369
230,1.6295906958533182662014991347802
231,1.6304643498152871447724038671453
232,1.6313342293053930888752682250375
233,1.6322003668124436203074179298776
234,1.6330627944076154462789531175001
235,1.6339215437515817029827107613232
236,1.6347766461014889086901522606537
237,1.6356281323177872464857892346018
238,1.6364760328709159076363861220589
239,1.6373203778478489311599473267463
240,1.6381611969585036929960936709640
241,1.6389985195420163261101880768696
242,1.6398323745728869274649232562341
243,1.6406627906669985826162935813678
244,1.6414897960875118961520865758910
245,1.6423134187506394010670401150478
246,1.6431336862313023656243069716839
247,1.6439506257686713794706506942900
248,1.6447642642715982995420696466488
249,1.6455746283239345242567072191089
250,1.6463817441897459800979208353902
251,1.6471856378184227199959400845949
252,1.6479863348496859314050355801152
253,1.6487838606184974256758067626374
254,1.6495782401598712649767240684297
255,1.6503694982135914061908194915281
256,1.6511576592288354465513741512700
257,1.6519427473687108617575706485872
258,1.6527247865147001806256691470061
259,1.6535038002710218991231549257037
260,1.6542798119689075194869563796804
261,1.6550528446707950274799536488192
262,1.6558229211744435325145010400218
263,1.6565900640169679205268060089929
264,1.6573542954787989697567612041118
265,1.6581156375875674539629151782451
266,1.6588741121219144001062696469139
267,1.6596297406152307130368359126045
268,1.6603825443593262001837771265423
269,1.6611325444080322654497744358594
270,1.6618797615807339957356494528008
271,1.6626242164658409233333478187318
272,1.6633659294241904430329254745900
273,1.6641049205923913263394277631017
274,1.6648412098861045410984954832990
275,1.6655748170032652513916624547538
276,1.6663057614272442753348999932586
277,1.6670340624299564840755743205992
278,1.6677597390749078959166002712909
279,1.6684828102201929680174619247179
280,1.6692032945214341785231268538982
281,1.6699212104346717879290838596480
282,1.6706365762192012759359649812819
283,1.6713494099403616662251943578035
284,1.6720597294722718956761354149603
285,1.6727675525005220352709583138329
286,1.6734728965248153874172006311711
287,1.6741757788615665189649610763600
288,1.6748762166464516316800716458515
289,1.6755742268369159182227759711811
290,1.6762698262146386361445865652916
291,1.6769630313879537408296349955100
292,1.6776538587942289622719592655406
293,1.6783423247022072314494011072542
294,1.6790284452143054931943990669367
295,1.6797122362688729926918020510788
296,1.6803937136424166211499099503023
297,1.6810728929517832523551728335032
298,1.6817497896563083868476812391242
299,1.6824244190599279065585377356198
300,1.6830967963132546904983843625070
301,1.6837669364156205029181681211589
302,1.6844348542170852468582444612827
303,1.6851005644204107561983087785603
304,1.6857640815830027037208084083914
305,1.6864254201188220536979594132774
306,1.6870845943002653222058007675826
307,1.6877416182600108271221242349595
308,1.6883965059928384062405804925257
309,1.6890492713574186927702924532372
310,1.6896999280780722833709724804374
311,1.6903484897465023936304686971482
312,1.6909949698234985141211984659815
313,1.6916393816406124597880780305118
314,1.6922817384018086169460861945952
315,1.6929220531850877075344336035013
316,1.6935603389440854462739588567803
317,1.6941966085096436293368382300848
318,1.6948308745913590057783879407782
319,1.6954631497791070732974193506557
320,1.6960934465445407995881402000176
321,1.6967217772425681882226789535607
322,1.6973481541128048035001490053530
323,1.6979725892810047683064155312762
324,1.6985950947604692121290879022984
325,1.6992156824534339312141473896234
326,1.6998343641524344980956904853097
327,1.7004511515416516412597902829355
328,1.7010660561982340841424789193025
329,1.7016790895936038183260794281813
330,1.7022902630947402426050684074512
331,1.7028995879654446065038282886649
332,1.7035070753675858194757003794058
333,1.7041127363623280043268819415149
334,1.7047165819113379788766658961069
335,1.7053186228779769807745817321568
336,1.7059188700284726935144295019336
337,1.7065173340330744458793133001960
338,1.7071140254671926436580412452195
339,1.7077089548125184981283020778802
340,1.7083021324581301426353221791605
341,1.7088935687015808508326699819216
342,1.7094832737499718537227488390938
343,1.7100712577210093932752459884158
344,1.7106575306440460063197034310477
345,1.7112421024611078580352107128950
346,1.7118249830279055998212505511184
347,1.7124061821148323168976952796154
348,1.7129857094079453773474803430424
349,1.7135635745099357275156126161310
350,1.7141397869410821760956543220759
351,1.7147143561401927544965263089953
352,1.7152872914655328358457515006566
353,1.7158586021957392969974140349654
354,1.7164282975307221380124689027043
355,1.7169963865925539243857056352848
356,1.7175628784263452618005241520675
357,1.7181277820011095424471295044354
358,1.7186911062106162069038054908917
359,1.7192528598742282667191877365120
360,1.7198130517377330256134601064387
361,1.7203716904741577441667456038601
362,1.7209287846845767295953951434489
363,1.7214843428989044462292535898734
364,1.7220383735766796706845016818726
365,1.7225908851078389281011750959900
366,1.7231418858134780871165353623416
367,1.7236913839466050055862597573172
368,1.7242393876928800157864665987224
369,1.7247859051713488816442412500593
370,1.7253309444351639411758894016346
371,1.7258745134722962874464027012105
372,1.7264166202062379445335346421211
373,1.7269572724966940052173330689555
374,1.7274964781402690388793270056763
375,1.7280342448711384611873202980463
376,1.7285705803617163217866925157598
377,1.7291054922233112992154793558286
378,1.7296389880067740704603443114396
379,1.7301710752031378949621280858638
380,1.7307017612442491698424009386045
381,1.7312310535033908317937245230927
382,1.7317589592958957238108779978112
383,1.7322854858797546014314188610760
384,1.7328106404562137421942172179075
385,1.7333344301703657795781228795065
386,1.7338568621117344200798366208859
387,1.7343779433148487927752885289355
388,1.7348976807598113681688274357476
389,1.7354160813728601210221472004883
390,1.7359331520269221262745316784695
391,1.7364488995421589050002241363123
392,1.7369633306865071287850498677912
393,1.7374764521762121560135035292151
394,1.7379882706763529811673785178193
395,1.7384987928013614540137109880764
396,1.7390080251155354195534088768810
397,1.7395159741335454086435098129886
398,1.7400226463209348874318146499546
399,1.7405280480946126313995601642039
400,1.7410321858233415239748536537639
401,1.7415350658282198286408761525845
402,1.7420366943831556797607669611457
403,1.7425370777153376128642588874318
404,1.7430362220056990274905610838293
405,1.7435341333893740480393903349397
406,1.7440308179561508916693442264543
407,1.7445262817509198599709936587481
408,1.7450205307741134576138558539215
409,1.7455135709821414990521077361348
410,1.7460054082878237177732095989897
411,1.7464960485608141381152772965492
412,1.7469854976280207922496881902607
413,1.7474737612740218613963544323823
414,1.7479608452414746651252450149328
415,1.7484467552315217827155012133044
416,1.7489314969041907362134298937049
417,1.7494150758787900836856885016032
418,1.7498974977342990859133889171826
419,1.7503787680097552250491407133116
420,1.7508588922046345571685498088139
421,1.7513378757792288509110656953507
422,1.7518157241550187938237347289819
423,1.7522924427150411025585557196792
424,1.7527680368042531506607511740436
425,1.7532425117298914933186249567141
426,1.7537158727618278959279670123674
427,1.7541881251329203511122063304003
428,1.7546592740393590978990525174723
429,1.7551293246410115554530372448199
430,1.7555982820617590334824854112953
431,1.7560661513898327229877121859467
432,1.7565329376781461168773468249580
433,1.7569986459446191983631394496711
434,1.7574632811725054950827736357787
435,1.7579268483107098226380023794320
436,1.7583893522741046185525693455301
437,1.7588507979438430280310229261426
438,1.7593111901676677235978625746486
439,1.7597705337602161399338364858356
440,1.7602288335033231951366542069326
441,1.7606860941463186582729035931603
442,1.7611423204063227268810187995706
443,1.7615975169685394621352167105669
444,1.7620516884865427010547185801229
445,1.7625048395825637764324304434957
446,1.7629569748477720688454372708347
447,1.7634080988425555599315164773158
448,1.7638582160967946051476085303063
449,1.7643073311101367665297741995626
450,1.7647554483522648579103183371182
451,1.7652025722631657057035527993427
452,1.7656487072533924666217947791458
453,1.7660938577043262454108800214740
454,1.7665380279684334015696435619696
455,1.7669812223695221689423030299345
456,1.7674234452029938851985751357964
457,1.7678647007360935269268885783603
458,1.7683049932081559462537190346203
459,1.7687443268308503229314851569425
460,1.7691827057884224742565310890864
461,1.7696201342379328725597703767234
462,1.7700566163094935833397919827056
463,1.7704921561065027278282584935538
464,1.7709267577058746309132999424723
465,1.7713604251582696231763006515424
466,1.7717931624883206277601182666447
467,1.7722249736948558126055929261445
468,1.7726558627511223237179528193588
469,1.7730858336050035761849115783088
470,1.7735148901792376275054255952343
471,1.7739430363716309003627019127265
472,1.7743702760552715524756317966626
473,1.7747966130787378444540395078852
474,1.7752220512663090096780229035305
475,1.7756465944181675489802569081626
476,1.7760702463106054639619678307897
477,1.7764930106962247619662783902433
478,1.7769148913041369087233398956982
479,1.7773358918401601180768917458994
480,1.7777560159870148734028061658334
481,1.7781752674045162316203216774105
482,1.7785936497297664786120658919793
483,1.7790111665773435160776107379687
484,1.7794278215394877996047112977878
485,1.7798436181862893048618747884345
486,1.7802585600658691067368639342815
487,1.7806726507045624202316714411951
488,1.7810858936070976996299035489315
489,1.7814982922567750240687466823754
490,1.7819098501156416325884766951608
491,1.7823205706246667428920612497989
492,1.7827304572039142419493653294360
493,1.7831395132527132234014144976998
494,1.7835477421498274657514400854267
495,1.7839551472536220437818425449424
496,1.7843617319022303175654179228250
497,1.7847674994137169845309220489558
498,1.7851724530862411397815543287133
499,1.7855765961982168419277075322890
500,1.785979932008473314845547065411
501,1.786382463756410531312194842864
502,1.786784194662157633607480470397
503,1.787185127926725659116585295730
504,1.787585266732162414675060454036
505,1.787984614241702347027022264447
506,1.788383173599917139383179939783
507,1.788780947932864882006374640350
508,1.789177940348237456679328149323
509,1.789574153935504365841227092040
510,1.789969591766059059521261626891
511,1.790364256893360991039752632825
512,1.790758152353077301563988205005
513,1.791151281163222749149706842953
514,1.791543646324298558627003845160
515,1.791935250819430566524481149474
516,1.792326097614504871321543819786
517,1.792716189658302063720321023777
518,1.793105529882631822279326286597
519,1.793494121202464656310754589378
520,1.793881966516063653006873558869
521,1.794269068705113023986326933177
522,1.794655430634847727429441364201
523,1.795041055154180602926281168988
