Eigenstate,Potential Energy
1,0.500000000037918398818304837267334927
2,0.64623093789862614063868722339725194
3,0.73633761043202047957512046967912726
4,0.79966527932858955739417515478298640
5,0.8480465779088498876646653202660829
6,0.8870660009293677592675446419629985
7,0.9197208298292051134516035696210617
8,0.9477838509857828395620616213691006
9,0.9723835634056614794403103963214293
10,0.9942802212375951725390809830480285
11,1.0140093946227507364774981732904320
12,1.0319621788658545685824527228740134
13,1.0484327040327927571986859354667082
14,1.0636476678067773939092528082936172
15,1.0777854513025343441883097975129438
16,1.090988923936750192128261231485773
17,1.103374276889577897803596101079233
18,1.115037274110837234165567108529231
19,1.126057775423993142964409478909097
20,1.136503074160092743640178626147918
21,1.146430403239462949090045212401198
22,1.155888846330450939146926089500915
23,1.164920815785949082638411540668895
24,1.173563210043817307831024224543463
25,1.181848330422809663124475217665104
26,1.189804614930162204490557345414225
27,1.197457231224168942924210030507866
28,1.204828559973221774641933611161163
29,1.211938592057762494270644447132112
30,1.218805257412107421271166060858568
31,1.225444699157166669259248995893193
32,1.231871503597180502801023765494764
33,1.238098894343947421872344509147728
34,1.244138897081472347835060195939904
35,1.250002480144768218961071545946225
36,1.255699675053065424904490267779153
37,1.261239680333598960952929321744841
38,1.266630951341724439713504006561954
39,1.271881278285265448348696921875981
40,1.276997854265173955917316841072614
41,1.281987334827835201645165845886685
42,1.286855890269355893438661844364645
43,1.291609251725688201034787441223782
44,1.296252751914348012674852595814147
45,1.300791361255916355192088764360489
46,1.305229719990376594809999588035224
47,1.309572166809863423617836067347768
48,1.313822764451813272442680669584887
49,1.317985322631843246942386246173876
50,1.32206341864156297009164792881807
51,1.32606041589105675176222159253187
52,1.32997948063742829179993980296537
53,1.33382359710835000445615031427632
54,1.33759558120199792057594732145585
55,1.34129809292127763143444805781179
56,1.34493364768017216798788882072491
57,1.34850462660284374418786280077232
58,1.35201328592132410671670530849307
59,1.35546176556487428622718188356960
60,1.35885209702307003746792289112693
61,1.36218621055510502817173368654211
62,1.36546594180950283147083912055094
63,1.36869303791118688758274128511471
64,1.37186916306654512058854093993780
65,1.37499590373159105615300961386721
66,1.37807477338347594698171357586138
67,1.38110721693134412148486190371382
68,1.38409461479876761030909896003050
69,1.38703828670668343467183378476729
70,1.38993949518282867216861569232147
71,1.39279944882106971199321045179578
72,1.39561930531172386913000245945286
73,1.39840017426191852067512872426129
74,1.40114311982321407888983072065440
75,1.40384916314208601448662314955955
76,1.40651928464741158689353173167890
77,1.40915442618780453982365007384094
78,1.41175549303047522229699155419972
79,1.41432335573224677526937378202775
80,1.41685885189241989837856349392148
81,1.41936278779632936984138936540561
82,1.42183593995767404198186485429996
83,1.42427905656701330108074557501402
84,1.42669285885319868852078752384370
85,1.42907804236395010402823498469769
86,1.43143527817127014642172346977908
87,1.43376521400693267647993980872814
88,1.43606847533285830880359912313647
89,1.43834566635080603738577899720289
90,1.44059737095546698287540231297816
91,1.44282415363472479746791620411553
92,1.44502656032055896581805997006138
93,1.44720511919380498531398904863190
94,1.44936034144574248031389437222351
95,1.45149272199926115091725976525197
96,1.45360274019215263472636463526783
97,1.45569086042489201794422455773351
98,1.45775753277509985786017117614372
99,1.45980319358072210658542772281209
100,1.46182826599381898548472548604594
101,1.46383316050672455559567743935359
102,1.46581827545221315460647416920862
103,1.46778399747920095734954434088050
104,1.46973070200540365205861111407343
105,1.47165875364827815087934594155209
106,1.47356850663548548888043120014589
107,1.47546030519603398385624140323976
108,1.47733448393318248965799216581711
109,1.47919136818011498225617657078376
110,1.48103127433933529761184385102002
111,1.48285451020666497923593843864184
112,1.48466137528067775968238410179636
113,1.48645216105834866442645447537424
114,1.48822715131764696882381466758964
115,1.48998662238776179034285879436605
116,1.49173084340760076661490527588954
117,1.49346007657317055683994732081253
118,1.49517457737440687298019342106072
119,1.49687459482198803345722575044725
120,1.49856037166464018983382851588271
121,1.50023214459740410971704982721477
122,1.50189014446131448598650479399128
123,1.50353459643491054951988336965830
124,1.50516572021797908277889706220349
125,1.50678373020790136535590187558975
126,1.50838883566896038528386930967554
127,1.50998124089494407202593237568986
128,1.51156114536535771987095062493256
129,1.51312874389554669722335537955388
130,1.51468422678101215540830741646416
131,1.51622777993618704649515079087172
132,1.51775958502792478244152251503656
133,1.51927981960394108627603873093452
134,1.52078865721643831007930684832025
135,1.52228626754112338618008431802887
136,1.52377281649182689045305768656513
137,1.52524846633091738866148646878068
138,1.52671337577569162479693277985549
139,1.52816770010091900446312490197115
140,1.52961159123770338038236946848840
141,1.53104519786882058961319896874512
142,1.53246866552068211880093199242918
143,1.53388213665206662361328853301010
144,1.53528575073975384887659016940071
145,1.53667964436119130816862890538009
146,1.53806395127431621287365606360619
147,1.53943880249464693773885458033065
148,1.54080432636975935193831216649028
149,1.54216064865124981657627462284768
150,1.54350789256428848948429971394039
151,1.54484617887485885154319310138515
152,1.54617562595477375367587735573419
153,1.54749634984455693418086618469857
154,1.54880846431427390562379180158884
155,1.55011208092239044725490412509652
156,1.55140730907273656929048348073977
157,1.55269425606964699563558955213270
158,1.55397302717134998312376359892801
159,1.5552437256416681500809163179263
160,1.5565064528000976517249987391884
161,1.5577613080703241984944625901747
162,1.5590083890272353783787991697109
163,1.5602477914424841365223704451542
164,1.5614796093286580486686427307207
165,1.5627039349821029886344838270299
166,1.5639208590244517053750534795148
167,1.5651304704429045419310524984322
168,1.5663328566293049851437901309033
169,1.5675281034180551082005596305573
170,1.5687162951229106490984689346252
171,1.5698975145726959194592164791581
172,1.5710718431459764103250860200655
173,1.5722393608047244972389099249288
174,1.5734001461270140880941412491181
175,1.5745542763387781986601622963413
176,1.5757018273446591621077826114562
177,1.5768428737579847330444626234966
178,1.5779774889298992404277091414093
179,1.5791057449776762342744161133703
180,1.5802277128122435725373753533492
181,1.5813434621649435967071108898659
182,1.5824530616135560914965423555766
183,1.5835565786076070778545260861487
184,1.5846540794929876808163742035894
185,1.5857456295359048802867747651018
186,1.5868312929461851133460876572619
187,1.5879111328999545285497949907861
188,1.5889852115617113285068039789663
189,1.5900535901058139317963660314076
190,1.5911163287374006052696271825270
191,1.5921734867127597892559984870613
192,1.5932251223591674978448548575101
193,1.5942712930942100980575516615826
194,1.5953120554446058086588210280233
195,1.5963474650645428509320585139722
196,1.5973775767535479432838389622159
197,1.5984024444738995149635723852704
198,1.5994221213675998008418868478320
199,1.6004366597729186510661202431608
200,1.6014461112405229957564860726229
201,1.6024505265492029411242631092308
202,1.6034499557212078731265063317320
203,1.6044444480372032233416141857594
204,1.6054340520508595119304100494375
205,1.6064188156030836329973527144910
206,1.6073987858359054010518875617927
207,1.6083740092060252291981510282707
208,1.6093445314980371604607602899377
209,1.6103103978373329950770159289633
210,1.6112716527026990093578551450222
211,1.6122283399386126250767004357085
212,1.6131805027672492565115599574669
213,1.6141281838002037130313734577654
214,1.6150714250499411329132086463103
215,1.6160102679409766546182838267051
216,1.6169447533207977799804249718831
217,1.6178749214705333883456769136861
218,1.6188008121153783741091304292796
219,1.6197224644347771805813681209311
220,1.6206399170723787383081902857231
221,1.6215532081457607101298218998232
222,1.6224623752559402403409082751102
223,1.6233674554966647687785235151645
224,1.6242684854634979691322556124245
225,1.6251655012627033680148399460356
226,1.6260585385199291827298101645227
227,1.6269476323887030205784504935232
228,1.6278328175587382499011600399514
229,1.6287141282640591949922233881927
230,1.6295915982909498411200478202571
231,1.6304652609857278389114039814081
232,1.6313351492623542170075913531301
233,1.6322012956098737884850539185143
234,1.6330637320997023970936358890974
235,1.6339224903927541743998914809403
236,1.6347776017464185065909871729143
237,1.6356290970213903310531501218810
238,1.6364770066883554937227599509133
239,1.6373213608345366027758264743256
240,1.6381621891701015320596513960903
241,1.6389995210344388555998978092132
242,1.6398333854023030691188685821183
243,1.6406638108898336293226659434307
244,1.6414908257604494991776821800656
245,1.6423144579306235722715206426384
246,1.6431347349755394948099876650149
247,1.6439516841346322670188981388932
248,1.6447653323170202044889745894683
249,1.6455757061068232279625310952380
250,1.6463828317683778656662916757633
251,1.6471867352513468676006607681771
252,1.6479874421957262296836280325968
253,1.6487849779367546993510807092009
254,1.6495793675097254188691976383594
255,1.6503706356547035857865083156113
256,1.6511588068211502152914139188860
257,1.6519439051724583952177129131342
258,1.6527259545903984777558183054716
259,1.6535049786794790107184650743639
260,1.6542810007712237940645598332809
261,1.6550540439283653747366155432964
262,1.6558241309489597045429020270180
263,1.6565912843704208109697471731994
264,1.6573555264734809310808723483959
265,1.6581168792860746330350226937502
266,1.6588753645871490922579768147710
267,1.6596310039104037348048917182719
268,1.6603838185479592809155384226078
269,1.6611338295539604579654553709507
270,1.6618810577481081062411726475470
271,1.6626255237191299607795109931261
272,1.6633672478281840881191722297531
273,1.6641062502122024203621999773030
274,1.6648425507871715948469296016217
275,1.6655761692513549742952574002107
276,1.6663071250884541250702372695622
277,1.6670354375707172368414097656747
278,1.6677611257619862375889849296314
279,1.6684842085206941063991693940435
280,1.6692047045028044769037889821338
281,1.6699226321647014201750382083702
282,1.6706380097660269033310333249698
283,1.6713508553724691362866340068120
284,1.6720611868584989631719690382340
285,1.6727690219100611056679374032861
286,1.6734743780272162829908988853733
287,1.6741772725267392678063761631971
288,1.6748777225446692798356821908592
289,1.6755757450388173652076373447724
290,1.6762713567912314940711875514404
291,1.6769645744106172173972121581620
292,1.6776554143347167678649133375852
293,1.6783438928326505105951377200974
294,1.6790300260072157806348675870619
295,1.6797138297971451943250094433568
296,1.6803953199793320201014328007257
297,1.6810745121710125404421651638464
298,1.6817514218319147217011974309501
299,1.6824260642663699946730215926425
300,1.6830984546253898964803214605708
301,1.6837686079087079852090167127125
302,1.6844365389667891202100537993424
303,1.6851022625028032811836478848509
304,1.6857657930745675035618821983050
305,1.6864271450964573587034274407388
306,1.6870863328412872421065893517068
307,1.6877433704421566516016925028449
308,1.6883982718942699339582535766591
309,1.6890510510567255891796650388495
310,1.6897017216542754676392195277272
311,1.6903502972790574549678148343505
312,1.6909967913922991578336767302177
313,1.6916412173259939833704656905638
314,1.6922835882845514165353570131583
315,1.6929239173464208150483300232496
316,1.6935622174656900975627622680246
317,1.6941985014736568636807962042650
318,1.6948327820803772970667760548258
319,1.6954650718761899932296918220960
320,1.6960953833332147132414150159057
321,1.6967237288068299823341513059759
322,1.6973501205371256478172669367360
323,1.6979745706503339103615950372193
324,1.6985970911602378058004994479575
325,1.6992176939695588994383716952913
326,1.6998363908713224301023132185946
327,1.7004531935502027247027606972403
328,1.7010681135838460725075401324657
329,1.7016811624441760339982240100956
330,1.7022923514986776159846862147517
331,1.7029016920116617515649131117765
332,1.7035091951455111461645434398000
333,1.7041148719619078682043400283035
334,1.7047187334230408684121453143698
335,1.7053207903927977427053011632544
336,1.7059210536379367966877768748800
337,1.7065195338292422840022795257000
338,1.7071162415426638773824714360896
339,1.7077111872604364369057424121045
340,1.7083043813721861667816417099569
341,1.7088958341760188742469739324046
342,1.7094855558795928277116371220831
343,1.7100735566011758519384327910456
344,1.7106598463706866539590957029578
345,1.7112444351307221990554560370526
346,1.7118273327375686115951682520201
347,1.7124085489621991660766917553856
348,1.7129880934912561801023836063805
349,1.7135659759280203542001039606926
350,1.7141422057933651008302903129535
351,1.7147167925266979501782640689878
352,1.7152897454868887150933422324554
353,1.7158610739531836995506395344466
354,1.7164307871261073651091624747291
355,1.7169988941283518206472501599496
356,1.7175654040056523451634393718305
357,1.7181303257276521826853445038527
358,1.7186936681887558532932789969662
359,1.7192554402089667254031962916378
360,1.7198156505347177872345280514973
361,1.7203743078396873623383821843557
362,1.7209314207256062507943531809644
363,1.7214869977230508916961564033231
364,1.7220410472922275709290440553383
365,1.7225935778237459106150717158761
366,1.7231445976393805179055910678270
367,1.7236941149928236851413536471341
368,1.7242421380704259301206551688916
369,1.7247886749919290090318950581820
370,1.7253337338111871152379583333620
371,1.7258773225168791172340908951287
372,1.7264194490332107922722097648575
373,1.7269601212206070223797982907718
374,1.7274993468763982612682306579328
375,1.7280371337354919637134330166629
376,1.7285734894710404336408306284990
377,1.7291084216950968801398179664293
378,1.7296419379592628488349778799146
379,1.7301740457553288684318181339486
380,1.7307047525159050692185242916176
381,1.7312340656150446489763529052507
382,1.7317619923688573044851226758838
383,1.7322885400361173033034319820383
384,1.7328137158188611595418727281736
385,1.7333375268629785349017756453131
386,1.7338599802587970236498601075439
387,1.7343810830416565708828513506846
388,1.7349008421924774608985166932271
389,1.7354192646383225503748503851913
390,1.7359363572529509354814802143231
391,1.7364521268573633698799271171512
392,1.7369665802203430420065473676979
393,1.7374797240589891851411851666245
394,1.7379915650392421013748690671119
395,1.7385021097764024563660958541732
396,1.7390113648356444957699067335040
397,1.7395193367325228132649410632503
398,1.7400260319334726783301147000038
399,1.7405314568563024895795406087089
400,1.7410356178706826536315255013304
401,1.7415385212986269384490285169845
402,1.7420401734149670463876780763343
403,1.7425405804478232277089203606930
404,1.7430397485790688276681561267265
405,1.7435376839447862326431531988988
406,1.7440343926357203243568847928762
407,1.7445298806977265589364746535269
408,1.7450241541322111740229393862189
409,1.7455172188965663850307840869170
410,1.7460090809046030850583352410860
411,1.7464997460269753084890445647324
412,1.7469892200916000408970128131983
413,1.7474775088840734543399242089450
414,1.7479646181480799919098309798144
415,1.7484505535857985855289840470150
416,1.7489353208583024366501066933908
417,1.7494189255859552083735545866889
418,1.7499013733488007922455310708677
419,1.7503826696869509282763545138124
420,1.7508628201009656601292782523983
421,1.7513418300522305776923608831672
422,1.7518197049633301286657764838340
423,1.7522964502184148353347793659281
424,1.7527720711635660302845382438629
425,1.7532465731071544904468073832020
426,1.7537199613201965763520354677616
427,1.7541922410367053612480632828833
428,1.7546634174540367638065073673359
429,1.7551334957332345968376618508616
430,1.7556024809993673941533974256356
431,1.7560703783418645192665719264507
432,1.7565371928148487054762582756156
433,1.7570029294374603652707799619384
434,1.7574675931941847670211693774290
435,1.7579311890351699026760860186752
436,1.7583937218765429474850047025573
437,1.7588551966007234731558496126866
438,1.7593156180567323965503398696944
439,1.7597749910604973452579499436465
440,1.7602333203951555113020342231891
441,1.7606906108113511528700913561721
442,1.7611468670275313077534496095446
443,1.7616020937302393662334761389975
444,1.7620562955744011228251800000435
445,1.7625094771836126375796905927776
446,1.7629616431504209313359006859616
447,1.7634127980366046841342214481350
448,1.7638629463734481550358707068152
449,1.7643120926620161638981184815503
450,1.7647602413734222875898316467987
451,1.7652073969490977737893321702270
452,1.7656535638010540137575565037754
453,1.7660987463121443172067158687665
454,1.7665429488363213782600667175094
455,1.7669861756988940564255538178842
456,1.7674284311967787696310084517843
457,1.7678697195987501950781479732330
458,1.7683100451456876738651016475542
459,1.7687494120508198333525829909365
460,1.7691878244999670696721306335059
461,1.7696252866517797401544451255182
462,1.7700618026379752787833299317772
463,1.7704973765635728385047542551710
464,1.7709320125071236213515096431325
465,1.7713657145209408651812218422316
466,1.7717984866313266177814330808996
467,1.7722303328387945789210353661790
468,1.7726612571182940260501871781207
469,1.7730912634194273004105324654567
470,1.7735203556666683781585790379829
471,1.7739485377595767936781286096469
472,1.7743758135730112127592961207001
473,1.7748021869573380066150464637483
474,1.7752276617386423307997493729570
475,1.7756522417189306318555151541999
476,1.7760759306763370955647217363011
477,1.7764987323653243698778887660879
478,1.7769206505168832385827873560818
479,1.7773416888387301351728608216004
480,1.7777618510155028915755779907064
481,1.7781811407089532726940581437778
482,1.7785995615581398656293015993427
483,1.7790171171796167036626061689841
484,1.7794338111676204448344863038811
485,1.7798496470942575820821940732415
486,1.7802646285096862698134378115991
487,1.7806787589422996157872168867885
488,1.7810920418989050348747677978227
489,1.7815044808649028928923573343465
490,1.7819160793044623036400503653846
491,1.7823268406606962134410753188832
492,1.7827367683558343613788273615428
493,1.7831458657913940902515928138118
494,1.7835541363483501022966377223572
495,1.7839615833873013521906888258810
496,1.7843682102486383217612075817779
497,1.7847740202527063619393405610435
498,1.7851790166999690472236638525549
499,1.7855832028711690399866452497230
500,1.785986582027488595109670213940
501,1.786389157410705450972982002424
502,1.786790932243351561964070962863
503,1.787191909728866140618810623093
504,1.787592093051750853215840972449
505,1.787991485377720016272299357106
506,1.788390089853851524015484098307
507,1.788787909608736354835697152762
508,1.789184947752626296666280554699
509,1.789581207377578122159058746639
510,1.789976691557600266876092620575
511,1.790371403348795241557373104774
512,1.790765345789501678643739023568
513,1.791158521900434628780687390858
514,1.791550934684824783756398950014
515,1.791942587128557000168645039012
516,1.792333482200306334206716563936
517,1.792723622851672662344215895899
518,1.793113012017315673387410789144
519,1.793501652615087013888033780769
520,1.793889547546162443992275632803
521,1.794276699695170799029237562958
522,1.794663111930324033118052567858
523,1.795048787103544782033887746292
