Eigenstate,Potential Energy
1,0.500000000055263194558254514973050932
2,0.64623093801184419435646798368860949
3,0.73633761076459059066119041163371138
4,0.79966528002129858850130153043720401
5,0.8480465791087713290161335721551191
6,0.8870660027861539079415384655780100
7,0.9197208324937214733537037475462648
8,0.9477838546095391260554867039762375
9,0.9723835681405475102983367476418860
10,0.9942802272357472580390256181814733
11,1.0140094020364795030746827526707095
12,1.0319621878476040887398376027051608
13,1.0484327147351167229409459851084866
14,1.0636476803823250996082487525282591
15,1.0777854659040425876221434259534565
16,1.090988940717038893669818125729232
17,1.103374296001548138779086088323095
18,1.115037295707470918155070950344557
19,1.126057799658353775672692426770285
20,1.136503101185327002451422683325152
21,1.146430433208802822267319780628954
22,1.155888879397216284048990656891922
23,1.164920852103550497704210115845085
24,1.173563249765759243419670850224142
25,1.181848373702693716996163004511100
26,1.189804661921690562097377599879090
27,1.197457282081147932845167555827485
28,1.204828614849565516792148117866680
29,1.211938651107496623825621631664738
30,1.218805320789372875163900549396115
31,1.225444767016223525031836232957091
32,1.231871576092411861799697150706560
33,1.238098971629863330458569667368146
34,1.244138979312713751582179082562773
35,1.250002567476110945814038845954362
36,1.255699767639424194070432208737859
37,1.261239778330031414914707476301843
38,1.266631054903435197255587860095790
39,1.271881387567610176883265459971696
40,1.276997969423663461720297396910385
41,1.281987456018139536873276531420871
42,1.286856017647308479012150620623359
43,1.291609385447289964646166221236869
44,1.296252892135771541329010715203787
45,1.300791508133510061803735105129552
46,1.305229873680668898485080532373211
47,1.309572327469566943329996814683381
48,1.313822932237829033887078512581025
49,1.317985497701264902409435598758716
50,1.32206360115168103125454522557390
51,1.32606060599936283531592630435820
52,1.32997967850161937792683969122495
53,1.33382380288633270812600859650447
54,1.33759579505189277571569742092296
55,1.34129831500142338802773231757083
56,1.34493387814913010218540620020509
57,1.34850486561940198152811383743153
58,1.35201353364450195857308778494041
59,1.35546202215392659961169069895215
60,1.35885236263749155833450119106429
61,1.36218648535463477837364713182481
62,1.36546622595412849953658067348700
63,1.36869333156114923348405199059796
64,1.37186946638234239468230437747943
65,1.37499621687398343248623914168282
66,1.37807509651348997115554279626170
67,1.38110755021027717327961083091767
68,1.38409495838819238127812673032104
69,1.38703864076845242091714524724736
70,1.38993985987907868251588146996331
71,1.39279982431422639178848566230116
72,1.39561969176450623988447748110158
73,1.39840057183734353578828031914068
74,1.40114352868460119568494998905847
75,1.40384958345306178279630621006996
76,1.40651971657191425443593401122313
77,1.40915486989008867461359185116802
78,1.41175594867511635233899726089200
79,1.41432382348414604578272989916328
80,1.41685933191680874680722440090317
81,1.41936328025877421890442682255085
82,1.42183644502408101102277694493200
83,1.42427957440363293597658216545919
84,1.42669338962663071041461010352306
85,1.42907858624114817715099084918850
86,1.43143583531954666527200126130428
87,1.43376578459396357263266758695714
88,1.43606905952668787762106172772070
89,1.43834626431985178490678574096220
90,1.44059798286852449316081217776530
91,1.44282477966097262068315771735095
92,1.44502720062956352733556549436205
93,1.44720577395552551612095056649359
94,1.44936101083053596901301374368866
95,1.45149340617788731761062523492273
96,1.45360343933577892707489882495548
97,1.45569157470509862969760518432258
98,1.45775826236388477015444751017231
99,1.45980393865050615230804349613940
100,1.46182902671745093700903124358771
101,1.46383393705748623618947949189517
102,1.46581906800382457382164811668739
103,1.46778480620582547070213910233331
104,1.46973152708165314531148791359794
105,1.47165959524921824924182253842584
106,1.47356936493664079144202996391286
107,1.47546118037339332357406138581702
108,1.47733537616320421922007354354576
109,1.47919227763973228614554603500804
110,1.48103220120596153069886819389103
111,1.48285545465819903222907570726158
112,1.48466233749550945177020781407700
113,1.48645314121536416344667614955383
114,1.48822814959623423929757874112881
115,1.48998763896781606971558424837341
116,1.49173187846953007004766491449786
117,1.49346113029790121089836020208712
118,1.49517564994338907857056441786457
119,1.49687568641720145836273615702601
120,1.49856148246859959120650557496705
121,1.50023327479316498688424814181505
122,1.50189129423247876393374310753326
123,1.50353576596563229341485472993259
124,1.50516690969297024390472195593203
125,1.50678493981243755882481967022836
126,1.50839006558888669990571874420312
127,1.50998249131668091270909424289425
128,1.51156241647590668293671851143744
129,1.51313003588249647901794619225486
130,1.51468553983254449460020156959690
131,1.51622911424108270044875530572001
132,1.51776094077556953806186015061593
133,1.51928119698433180572227210354490
134,1.52079005642018901174885811880176
135,1.52228768875947136136847329110274
136,1.52377425991663885609831831636124
137,1.52524993215469567658567125704954
138,1.52671486419158040786101852996417
139,1.52816921130271056005532398877990
140,1.52961312541984439166385853978652
141,1.53104675522641848494895013445683
142,1.53247024624951144980740783625798
143,1.53388374094857548225877629302610
144,1.53528737880107032407394634081025
145,1.53668129638512998230424090932953
146,1.53806562745938469872070663413931
147,1.53944050304005245620711739057311
148,1.54080605147541535111690594794071
149,1.54216239851778263253025680501022
150,1.54350966739304404927018968395856
151,1.54484797886790941891310802054358
152,1.54617745131492471794437933830193
153,1.54749820077535364273308275163988
154,1.54881034102000854054811082549851
155,1.55011398360810894658812358299009
156,1.55140923794424559336809243935187
157,1.55269621133352093904460296719550
158,1.55397500903493803276037690024517
159,1.5552457343131013898201314240505
160,1.5565084884882962142144944635159
161,1.5577633709850044645898392781787
162,1.5590104793789172247426349164927
163,1.5602499094424982319144247367009
164,1.5614817551891531994601150143481
165,1.5627061089160535340844021974424
166,1.5639230612456649632121956926832
167,1.5651327011660283047902678463525
168,1.5663351160698350684112649999200
169,1.5675303917923429498279829696185
170,1.5687186126481709619518930157546
171,1.5698998614670143967740070467114
172,1.5710742196283174848443255214568
173,1.5722417670949391546183282942719
174,1.5734025824458477351628080797555
175,1.5745567429078785871322019677360
176,1.5757043243865843683464164625211
177,1.5768454014962111944860100842994
178,1.5779800475888298492793324898187
179,1.5791083347826484891059699844005
180,1.5802303339895377883940599907241
181,1.5813461149417911743761638031699
182,1.5824557462181478465679532884084
183,1.5835592952691016302223802686086
184,1.5846568284415199052743586733504
185,1.5857484110025944188781254028113
186,1.5868341071631449501354261193996
187,1.5879139801002996274912440461218
188,1.5889880919795673350901082079064
189,1.5900565039763259391598670971124
190,1.5911192762967419854764687184256
191,1.5921764681981410904372729972816
192,1.5932281380088454079211036150507
193,1.5942743431474964757576359752845
194,1.5953151401418767825629036833813
195,1.5963505846472479872734648567992
196,1.5973807314642194832524706279259
197,1.5984056345561616822615648248610
198,1.5994253470661781802505673817877
199,1.6004399213336496387915349649538
200,1.6014494089103633223291404121337
201,1.6024538605762392676373554388576
202,1.6034533263546664616055569798796
203,1.6044478555274596820471048984921
204,1.6054374966494486164040909104269
205,1.6064222975627092236715485172995
206,1.6074023054104503582506210528880
207,1.6083775666505615263680112962058
208,1.6093481270688359964787012273100
209,1.6103140317918750064919987358445
210,1.6112753252996845634326582830897
211,1.6122320514379721945060758504197
212,1.6131842534301538767026962130529
213,1.6141319738890755228431264136158
214,1.6150752548284639997597797711073
215,1.6160141376741068848544435224741
216,1.6169486632747749154949217750047
217,1.6178788719128910903003149723797
218,1.6188048033149553947720798822591
219,1.6197264966617284242138743274879
220,1.6206439905981864120744777622295
221,1.6215573232432455660119904835617
222,1.6224665321992729090511518893596
223,1.6233716545613771866729922593767
224,1.6242727269264948991421472320733
225,1.6251697854022740156227170648927
226,1.6260628656157589080301507931078
227,1.6269520027218851474743521891703
228,1.6278372314117859735012103641585
229,1.6287185859209175882837032560307
230,1.6295961000370079620077779373532
231,1.6304698071078309387237810855914
232,1.6313397400488160515849516582857
233,1.6322059313504890329780053544752
234,1.6330684130857591656129768658871
235,1.6339272169170466456728633708734
236,1.6347823741032596567923147065899
237,1.6356339155066247749937364349028
238,1.6364818715993724355921543586999
239,1.6373262724702828976497622704510
240,1.6381671478310948593977696056236
241,1.6390045270227810059742311295828
242,1.6398384390216933454273336605713
243,1.6406689124455823637585578655629
244,1.6414959755594916872401558686885
245,1.6423196562815326251181391130101
246,1.6431399821885411112683645339061
247,1.6439569805216184265899221496777
248,1.6447706781915632826910379021983
249,1.6455811017841902353818951845362
250,1.6463882775655448120959405973498
251,1.6471922314870132526665675719877
252,1.6479929891903296613749085611545
253,1.6487905760124856418873540610296
254,1.6495850169905420713569151737154
255,1.6503763368663468931329432332807
256,1.6511645600911590128641154395996
257,1.6519497108301846887550541388120
258,1.6527318129670228600529921888208
259,1.6535108901080262166327457854781
260,1.6542869655865783954021245874957
261,1.6550600624672876166032873341555
262,1.6558302035501014847609210204475
263,1.6565974113743418041821904695630
264,1.6573617082226648591867661041792
265,1.6581231161249456836176151058135
266,1.6588816568620884866908080048072
267,1.6596373519697664477402396082848
268,1.6603902227420909128829614774505
269,1.6611402902352142628285768189665
270,1.6618875752708621752840163552924
271,1.6626320984398045652158662558434
272,1.6633738801052591818413520559533
273,1.6641129404062353047686709724532
274,1.6648492992608147476124183611017
275,1.6655829763693740439697506050609
276,1.6663139912177460934186820313454
277,1.6670423630803287508597145980552
278,1.6677681110231321131573807347781
279,1.6684912539067760055589277282690
280,1.6692118103894297607693140169117
281,1.6699297989297021795194509198186
282,1.6706452377894791689095910536345
283,1.6713581450367122709894359074405
284,1.6720685385481552381245506730345
285,1.6727764360120554624262819480647
286,1.6734818549307962840050138381079
287,1.6741848126234952373557723925464
288,1.6748853262285546376684902715772
289,1.6755834127061691551447925247025
290,1.6762790888407911098667763797117
291,1.6769723712435513281765045619525
292,1.6776632763546384454924315991106
293,1.6783518204456405613560812821240
294,1.6790380196218442836448437743887
295,1.6797218898244932491158572438305
296,1.6804034468330137058625205076094
297,1.6810827062671970894307885858753
298,1.6817596835893489093685429115189
299,1.6824343941064007490868373056286
300,1.6831068529719871296599659549366
301,1.6837770751884876490238222929304
302,1.6844450756090364895276982626711
303,1.6851108689394964669915644183070
304,1.6857744697404011988218619240476
305,1.6864358924288668197365983796470
306,1.6870951512804725083445537699239
307,1.6877522604311070065777599100588
308,1.6884072338787886104521070749969
309,1.6890600854854547214689150757009
310,1.6897108289787212938515394797182
311,1.6903594779536157725683166048131
312,1.6910060458742810353244624771393
313,1.6916505460756517313210617515875
314,1.6922929917651048211064367300797
315,1.6929333960240836372143327952117
316,1.6935717718096968412839701707726
317,1.6942081319562898163202477768865
318,1.6948424891769938453934729337724
319,1.6954748560652502183959655766111
320,1.6961052450963092681698975658552
321,1.6967336686287082549975293477752
322,1.6973601389057242139434262652827
323,1.6979846680568052791460145936527
324,1.6986072680989794622580595743636
325,1.6992279509382426470782489487810
326,1.6998467283709240376621771050399
327,1.7004636120850318807299621522050
328,1.7010786136615766516307214609682
329,1.7016917445758766787855101075219
330,1.7023030161988426383416380511864
331,1.7029124397982423576810665335473
332,1.7035200265399469890745455764356
333,1.7041257874891589320889475287548
334,1.7047297336116196888223693620400
335,1.7053318757748019669538599932597
336,1.7059322247490820887133687420099
337,1.7065307912088955780740576019631
338,1.7071275857338769850749984943119
339,1.7077226188099800118398017157818
340,1.7083159008305840316907767529098
341,1.7089074420975827149965757580359
342,1.7094972528224572589644920886251
343,1.7100853431273338592300004608114
344,1.7106717230460254170141938678158
345,1.7112564025250593012503114255475
346,1.7118393914246886405405578311282
347,1.7124206995198907103702766896902
348,1.7130003365013492273743802591842
349,1.7135783119764240956510054383267
350,1.7141546354701061475373669149901
351,1.7147293164259589665248354857391
352,1.7153023642070474747556162519578
353,1.7158737880968525695576033164762
354,1.7164435973001732235726753152151
355,1.7170118009440164138448387689787
356,1.7175784080784730897400584350962
357,1.7181434276775834188279048819975
358,1.7187068686401905548196827519548
359,1.7192687397907786727972111866685
360,1.7198290498803042097496119316783
361,1.7203878075870120553856238910922
362,1.7209450215172431749246569827466
363,1.7215007002062282595826117110705
364,1.7220548521188724288529168997441
365,1.7226074856505292210591253610480
366,1.7231586091277627499584125046554
367,1.7237082308091009195197506417954
368,1.7242563588857764857224270680296
369,1.7248030014824605980367479035576
370,1.7253481666579845338835845822518
371,1.7258918624060524795041982061230
372,1.7264340966559443138456619757519
373,1.7269748772732083623048057706803
374,1.7275142120603484289402718976449
375,1.7280521087574957988555850256222
376,1.7285885750430776671043152772918
377,1.7291236185344737834659922209548
378,1.7296572467886644806438712720522
379,1.7301894673028719258299027043311
380,1.7307202875151913525470515137248
381,1.7312497148052151483537158062049
382,1.7317777564946469167302605367340
383,1.7323044198479101879632879386470
384,1.7328297120727467428847403989975
385,1.7333536403208081708809218830274
386,1.7338762116882413209835175661825
387,1.7343974332162633955443407488618
388,1.7349173118917306234594726995596
389,1.7354358546477011877957862414031
390,1.7359530683639895970986402937810
391,1.7364689598677128174951572364789
392,1.7369835359338317741464272252661
393,1.7374968032856856957165341705251
394,1.7380087685955178831359735884842
395,1.7385194384849957597188244345676
396,1.7390288195257248536927353630434
397,1.7395369182397563432381374916164
398,1.7400437411000881723726402900974
399,1.7405492945311583036658172359810
400,1.7410535849093344079508635349009
401,1.7415566185633960401569342516597
402,1.7420584017750100466910726018208
403,1.7425589407792020253252847981748
404,1.7430582417648217308957304632777
405,1.7435563108749998924870903307898
406,1.7440531542076025513603651413977
407,1.7445487778156800365788413813119
408,1.7450431877079080817631203740391
409,1.7455363898490239442933854306327
410,1.7460283901602600416828541673130
411,1.7465191945197693653930745219523
412,1.7470088087630462549348128739299
413,1.7474972386833436115753936671588
414,1.7479844900320829757656617278233
415,1.7484705685192617525189221480191
416,1.7489554798138540146526650220328
417,1.7494392295442077326608947549261
418,1.7499218232984355947438328373809
419,1.7504032666248036957984599339630
420,1.7508835650321130775923221484782
421,1.7513627239900780726096083146659
422,1.7518407489297007334834114405586
423,1.7523176452436391844727017713264
424,1.7527934182865735090329975820167
425,1.7532680733755655531695871881299
426,1.7537416157904162517516184373310
427,1.7542140507740179627605284194065
428,1.7546853835327018235103250323885
429,1.7551556192365840415823965135243
430,1.7556247630199039829475119860499
431,1.7560928199813615612974720499214
432,1.7565597951844510784806555353365
433,1.7570256936577868543229002062502
434,1.7574905203954317441650260302598
435,1.7579542803572163681905228188185
436,1.7584169784690569539436533523207
437,1.7588786196232699538246651289274
438,1.7593392086788824200503088113971
439,1.7597987504619388188179563150725
440,1.7602572497658053553295486317002
441,1.7607147113514689699779323510492
442,1.7611711399478345698028388806883
443,1.7616265402520201433822980175248
444,1.7620809169296443790061873580193
445,1.7625342746151161172817826901982
446,1.7629866179119166630178568595461
447,1.7634379513928821260642790725733
448,1.7638882796004790098282925445323
449,1.7643376070470808885014692852944
450,1.7647859382152383259770510547263
451,1.7652332775579495401070286552412
452,1.7656796294989246542073708730400
453,1.7661249984328492794597710486266
454,1.7665693887256438177447548890062
455,1.7670128047147221093774267759424
456,1.7674552507092447233572068167615
457,1.7678967309903715864640540376678
458,1.7683372498115103477322914012090
459,1.7687768113985629928833867216290
460,1.7692154199501703517201228855265
461,1.7696530796379523488918749273894
462,1.7700897946067472117719402135945
463,1.7705255689748482399282945223724
464,1.7709604068342362978188976515167
465,1.7713943122508120001837454455929
466,1.7718272892646247215928652596533
467,1.7722593418900977114317940865747
468,1.7726904741162543307610511236223
469,1.7731206899069378885496609576147
470,1.7735499932010326026498180291672
471,1.7739783879126799534605886339635
472,1.7744058779314947287555139391025
473,1.7748324671227761114546218031855
474,1.7752581593277213152361233793576
475,1.7756829583636306916620031382846
476,1.7761068680241168235627898858111
477,1.7765298920793079386379312898435
478,1.7769520342760503202438001356031
479,1.7773732983381086057574344249691
480,1.7777936879663643681224868709248
481,1.7782132068390115325037645009451
482,1.7786318586117521979087147861401
483,1.7790496469179882448699950489243
484,1.7794665753690115500665294633403
485,1.7798826475541942859074569123691
486,1.7802978670411738910397301223316
487,1.7807122373760395617690011961159
488,1.7811257620835148621005259440798
489,1.7815384446671396817585475983005
490,1.7819502886094494065097319155908
491,1.7823612973721534363057811677200
492,1.7827714743963116406906461409154
493,1.7831808231025087277713647326702
494,1.7835893468910276221126271845440
495,1.7839970491420200453981651499057
496,1.7844039332156775456717484189953
497,1.7848100024523986620856514863090
498,1.7852152601729561718679575916061
499,1.7856197096786619183105116421406
500,1.786023354251531351771943168982
501,1.786426197154443531266001313381
502,1.786828241631304043380401379418
503,1.787229490907202308259152432957
504,1.787629948188571118129363368370
505,1.788029616663341257520700255884
506,1.788428499501096936992013545142
507,1.788826599853229890155566835595
508,1.789223920853091775771703139581
509,1.789620465616143117659755169212
510,1.790016237240104837559892352104
511,1.790411238805105613977808002871
512,1.790805473373828969205373431424
513,1.791198943991658702312844520540
514,1.791591653686823346682307055388
515,1.791983605470540028549568353461
516,1.792374802337155939170215572855
517,1.792765247264288497687622267110
518,1.793154943212965992488011876159
519,1.793543893127765485454984295003
520,1.793932099936950838657798804045
521,1.794319566552607661300943746128
522,1.794706295870779455805529427474
523,1.795092290771601402923243813228
