Eigenstate,Potential Energy
1,0.500000000025849447970115349276779497
2,0.64623093781984626401866977879420956
3,0.73633761020061069760933816471969433
4,0.79966527884658868814101751156150250
5,0.8480465770739241649757739534195648
6,0.8870659996373914526506253826328018
7,0.9197208279752113717017905537799127
8,0.9477838484643602372015478132179169
9,0.9723835601111384161018748621458418
10,0.9942802170641334683264115867406623
11,1.0140093894643964808852227713197449
12,1.0319621726165671864258793122392090
13,1.0484326965864622157479849691375471
14,1.0636476590572345852120864791286548
15,1.0777854411435573500532031270849867
16,1.090988912262067962733417973596999
17,1.103374263592872247831242134707326
18,1.115037259085743710550388648694332
19,1.126057758564101115265016047636780
20,1.136503055358944945936366426053015
21,1.146430382390554626570814249563143
22,1.155888823327228704256382768691394
23,1.164920790521809554072213791262130
24,1.173563182412105584566915664016615
25,1.181848300316817671268911328226901
26,1.189804582243126944715329037019849
27,1.197457195849270659194012783607968
28,1.204828521803582059857589064059639
29,1.211938550986442344757508565195033
30,1.218805213332105249317054920127411
31,1.225444651961416280871942807522553
32,1.231871453178549046319811202412662
33,1.238098840595233311896755271360476
34,1.244138839895403168031791640629052
35,1.250002419413998606608947770919056
36,1.255699610670174939487715585717280
37,1.261239612191089938678651299407776
38,1.266630879332019835484046572459495
39,1.271881202300706666441737375879780
40,1.276997774198018670403637558523767
41,1.281987250570255167392037842378491
42,1.286855801713434748398546653279164
43,1.291609158763419260397156671024693
44,1.296252654437632055358262184102319
45,1.300791259156559403070048982121559
46,1.305229613160087684994445100414853
47,1.309572055140252374065556665470746
48,1.313822647834388441100842366217755
49,1.317985200958009284607662364061777
50,1.32206329180261856712214727964695
51,1.32606028377819237875124703910597
52,1.32997934314172393429484655868164
53,1.33382345412077289178341744235423
54,1.33759543261340024881446671198116
55,1.34129793862239428056250645183210
56,1.34493348756161841321497000905869
57,1.34850446055511296146990386319356
58,1.35201311383478547244245922125989
59,1.35546158732977047105379987476570
60,1.35885191252951489427539182903821
61,1.36218601969308127409837009938920
62,1.36546574446885972398539431039261
63,1.36869283398163789454282703529174
64,1.37186895243766558422985215775629
65,1.37499568629281585094910659377743
66,1.37807454902409713130992129640452
67,1.38110698554050858303005090649059
68,1.38409437626547470513368804299882
69,1.38703804091978261987720646271213
70,1.38993924203101713207036368788414
71,1.39279918819288997772994713797737
72,1.39561903709556143162319811285784
73,1.39839989834599943685514500910273
74,1.40114283609560257110136728786242
75,1.40384887149068206298486884026917
76,1.40651898495994851534060687873786
77,1.40915411835184659369325858192127
78,1.41175517693341514009366887638668
79,1.41432303126130335246727681771066
80,1.41685851893463554398340824920379
81,1.41936244623856765547779081944016
82,1.42183558968661724340714597428440
83,1.42427869746915993202508245195705
84,1.42669249081486102675242332885216
85,1.42907766527125170954140900538489
86,1.43143489191014337164392495010752
87,1.43376481846311616839404468019172
88,1.43606807039189450287947267992627
89,1.43834525189803864321498343140183
90,1.44059694687603846140167534929856
91,1.44282371981357382970517837791477
92,1.44502611664241791294679181313128
93,1.44720466554319734004594821753677
94,1.44935987770698030941423888300701
95,1.45149224805644252877227127897129
96,1.45360225592915906784415843245166
97,1.45569036572538586027487290795203
98,1.45775702752252171682094242148068
99,1.45980267765828823967589000921041
100,1.46182773928451868737569929460741
101,1.46383262289331753557513466981030
102,1.46581772681722690426465975547546
103,1.46778343770492810838478245867847
104,1.46973013097389932408433879584288
105,1.47165817124135728911217739055382
106,1.47356791273472019158813577548788
107,1.47545969968275081944369530479564
108,1.47733386668845980326834511709268
109,1.47919073908478019176354213898470
110,1.48103063327396217888104740097429
111,1.48285385705157094052393931360781
112,1.48466070991592110505511694645415
113,1.48645148336372584606400867719285
114,1.48822646117268982808590744905994
115,1.48998591967173478746573791900164
116,1.49173012799949819890987110899559
117,1.49345934835171376526281861549733
118,1.49517383621804143694008610673868
119,1.49687384060888095373215037880114
120,1.49855960427267705945956514637493
121,1.50023136390418627271496867444312
122,1.50188935034415618379496003768452
123,1.50353378877083605499285192183239
124,1.50516489888371982161460151880344
125,1.50678289507989302481717562440659
126,1.50838798662334001007099545769528
127,1.50998037780754714716172850535072
128,1.51156026811171524045683393598731
129,1.51312785235088222492411322222435
130,1.51468332082023886152229603588502
131,1.51622685943390474146560849492931
132,1.51775864985841693166347612755925
133,1.51927886964117181205249968518074
134,1.52078769233404937957913876605946
135,1.52228528761243118524888756685912
136,1.52377182138981938312741757328612
137,1.52524745592825106223568086139192
138,1.52671234994468842029021060694696
139,1.52816665871356323233436251181591
140,1.52961053416563862133789958748729
141,1.53104412498334658035239904401296
142,1.53246757669275162254296163338223
143,1.53388103175228228524719591748713
144,1.53528462963836503457577946081479
145,1.53667850692809092930949400767607
146,1.53806279737903753409695905400809
147,1.53943763200636036899113108210403
148,1.54080313915726922432934107838987
149,1.54215944458299114188743162216109
150,1.54350667150832370316127836077573
151,1.54484494069887453900523076928032
152,1.54617437052607735977241261775426
153,1.54749507703007345562507780571797
154,1.54880717398054256623126529477173
155,1.55011077293556135581425447778686
156,1.55140598329856735989123548521649
157,1.55269291237349945027751991686480
158,1.55397166541818663643020787600734
159,1.5552423456960488759372803324657
160,1.5565050545261762316622091438071
161,1.5577598913318448716356284844980
162,1.5590069536875293727658719672270
163,1.5602463373644661816381589089357
164,1.5614781363748228689679384578072
165,1.5627024430145217778965095401804
166,1.5639193479047685816880478100495
167,1.5651289400323329831180492647488
168,1.5663313067886242444371470952612
169,1.5675265340076066099712626529811
170,1.5687147060025943644444507864054
171,1.5698959056019667214554238941007
172,1.5710702141838404087363307836414
173,1.5722377117097353524948234485868
174,1.5733984767572693043238949261882
175,1.5745525865519153955828991566796
176,1.5757001169978523255729310466653
177,1.5768411427079404440143871388504
178,1.5779757370328528821933093809800
179,1.5791039720893881776926257834832
180,1.5802259187879953390774862542863
181,1.5813416468595339990911801846192
182,1.5824512248812973517172104665401
183,1.5835547203023209223517078608697
184,1.5846521994680014125923353260930
185,1.5857437276440474277371431197403
186,1.5868293690397830555827031364759
187,1.5879091868308280969887793543475
188,1.5889832431811703844938095723301
189,1.5900515992646539200385166709717
190,1.5911143152858984828418641274847
191,1.5921714505006699299473910023121
192,1.5932230632357175716083429592518
193,1.5942692109080969253245056283583
194,1.5953099500439911892776118766865
195,1.5963453362970493674877693553614
196,1.5973754244662547385539557150174
197,1.5984002685133380432622869447055
198,1.5994199215797495530035272363125
199,1.6004344360032028528158088590748
200,1.6014438633338042792138407385241
201,1.6024482543497789891838565806836
202,1.6034476590728070364561112229282
203,1.6044421267829801097371482935402
204,1.6054317060333905477640161693054
205,1.6064164446643625964926268020388
206,1.6073963898173389271177743066440
207,1.6083715879484282855505865485714
208,1.6093420848416284947585815613562
209,1.6103079256217305527962269873207
210,1.6112691547669153221255596499885
211,1.6122258161210501691836440629926
212,1.6131779529056957813194120302076
213,1.6141256077318275389883182011939
214,1.6150688226112864188886490451799
215,1.6160076389679586342647998314677
216,1.6169420976486979668283252899650
217,1.6178722389339947493326751634497
218,1.6187981025484004712449638646044
219,1.6197197276707112804441338532838
220,1.6206371529439228890665072188329
221,1.6215504164849547857817402734808
222,1.6224595558941609518577884157947
223,1.6233646082646206418389580484675
224,1.6242656101912242881281260140546
225,1.6251625977795570860084774031702
226,1.6260556066545837970382566972798
227,1.6269446719691434136575323972411
228,1.6278298284122554951990260624067
229,1.6287111102172453274386991067950
230,1.6295885511696925919150341373478
231,1.6304621846152053342719860546529
232,1.6313320434670296405306324149088
233,1.6321981602134900067782736808261
234,1.6330605669252765483249928555798
235,1.6339192952625722194114918661974
236,1.6347743764820297422204117438415
237,1.6356258414436018653015489109441
238,1.6364737206172266824051852014570
239,1.6373180440893734472863185971066
240,1.6381588415694510378790576779957
241,1.6389961423960833511715024625153
242,1.6398299755432544847126721189011
243,1.6406603696263277355055614205507
244,1.6414873529079401045029843443516
245,1.6423109533037766797972647307865
246,1.6431311983882274170514032249248
247,1.6439481153999276989369107315929
248,1.6447617312471902541121412978099
249,1.6455720725133234042360138102134
250,1.6463791654618460231171057746693
251,1.6471830360415971074044714713399
252,1.6479837098917427567140625592377
253,1.6487812123466856347883356765385
254,1.6495755684408765679401814739784
255,1.6503668029135321602047044412296
256,1.6511549402132585099598452898877
257,1.6519400045025874187542845226682
258,1.6527220196624215363954363624093
259,1.6535010092963952451421608068943
260,1.6542769967351516687006945313358
261,1.6550500050405361190748880012738
262,1.6558200570097107059968883654954
263,1.6565871751791889588192762742095
264,1.6573513818287959110201005910903
265,1.6581126989855521718476651165192
266,1.6588711484274841521357968391664
267,1.6596267516873636568205668578365
268,1.6603795300563768771560333481273
269,1.6611295045877270518267215248908
270,1.6618766961001665203797249666046
271,1.6626211251814674522113629176315
272,1.6633628121918252299507560754655
273,1.6641017772672019296328934538572
274,1.6648380403226071059572001597261
275,1.6655716210553197574886595962435
276,1.6663025389480497494320188982573
277,1.6670308132720461772707064661486
278,1.6677564630901444251959886201067
279,1.6684795072597634217723394966051
280,1.6691999644358451856866632855833
281,1.6699178530737445503859824139949
282,1.6706331914320665638533126988277
283,1.6713459975754547759498859627591
284,1.6720562893773275698400557240487
285,1.6727640845225693447415890642602
286,1.6734694005101725747275376618157
287,1.6741722546558358028527357406388
288,1.6748726640945139723623617617457
289,1.6755706457829257430282360305709
290,1.6762662165020185251216055266261
291,1.6769593928593890719443573921249
292,1.6776501912916625158065759858670
293,1.6783386280668337532064551612351
294,1.6790247192865662161090632412996
295,1.6797084808884501164496850001445
296,1.6803899286482277494036432690403
297,1.6810690781819757871288428193198
298,1.6817459449482538797135362221467
299,1.6824205442502163661662184020534
300,1.6830928912376888460323777897385
301,1.6837630009092100230544436806435
302,1.6844308881140409137866589297092
303,1.6850965675541385942725984129150
304,1.6857600537860980622932012958596
305,1.6864213612230636436908483846384
306,1.6870805041366092059677317283634
307,1.6877374966585843611109370832948
308,1.6883923527829341360711642748272
309,1.6890450863674882001596796855377
310,1.6896957111357199845080993795413
311,1.6903442406784792884930528123999
312,1.6909906884556958862568047621745
313,1.6916350677980555260713443197984
314,1.6922773919086501268185574720189
315,1.6929176738646014912280477245587
316,1.6935559266186599115137925497085
317,1.6941921630007752060132440340354
318,1.6948263957196455380729259893099
319,1.6954586373642411587411732503765
320,1.6960889004053030745256339957035
321,1.6967171971968205591483397858754
322,1.6973435399774836237286438835992
323,1.6979679408721139594318879713504
324,1.6985904118930733297227323477464
325,1.6992109649416511742027782990602
326,1.6998296118094296612584770420813
327,1.7004463641796290102733102208905
328,1.7010612336284302725984945820018
329,1.7016742316262805461393633337121
330,1.7022853695391770552225910846042
331,1.7028946586299315343196359793748
332,1.7035021100594159768492767155992
333,1.7041077348877901275959854833004
334,1.7047115440757089027484197822487
335,1.7053135484855140524722545453532
336,1.7059137588824061240495083413060
337,1.7065121859355995978119906941021
338,1.7071088402194622547013874887556
339,1.7077037322146348399445128340871
340,1.7082968723091371141649123291638
341,1.7088882707994560054893488899274
342,1.7094779378916183597800171701077
343,1.7100658837022479267623346412074
344,1.7106521182596065757367614383247
345,1.7112366515046215601898465448140
346,1.7118194932918963060803965591512
347,1.7124006533907082891405236301654
348,1.7129801414859908128968237453130
349,1.7135579671793022323173751723517
350,1.7141341399897801654064540351897
351,1.7147086693550827803318652729835
352,1.7152815646323168404320053135995
353,1.7158528350989517914621229372481
354,1.7164224899537213055384503029088
355,1.7169905383175126470457692403338
356,1.7175569892342420702795339993359
357,1.7181218516717194878498326357096
358,1.7186851345225016538370148576798
359,1.7192468466047296068269493857990
360,1.7198069966629593107346638732214
361,1.7203655933689772382747387166661
362,1.7209226453226073786690072236349
363,1.7214781610525042651946029213396
364,1.7220321490169370465568986486910
365,1.7225846176045628384459547607846
366,1.7231355751351882329366877565755
367,1.7236850298605218577353311967541
368,1.7242329899649147739928194530242
369,1.7247794635660933452231370553918
370,1.7253244587158802904938999545596
371,1.7258679834009067751919038730247
372,1.7264100455433144958354382734509
373,1.7269506530014477256427052733242
374,1.7274898135705396293289405047800
375,1.7280275349833835386959777872643
376,1.7285638249110006452235204636512
377,1.7290986909632958988668900694558
378,1.7296321406897052804662954198764
379,1.7301641815798362875633417780088
380,1.7306948210640983903840605909971
381,1.7312240665143263334176718495710
382,1.7317519252443934007556391256305
383,1.7322784045108193198461165316412
384,1.7328035115133677673588134759432
385,1.7333272533956370984088639735586
386,1.7338496372456449577851783027706
387,1.7343706700964025225133058168250
388,1.7348903589264823125428208184758
389,1.7354087106605802442371510041669
390,1.7359257321700691157624420894557
391,1.7364414302735438413067726547889
392,1.7369558117373620424963832793289
393,1.7374688832761774704853078724862
394,1.7379806515534648398040358927396
395,1.7384911231820389308286955313889
396,1.7390003047245676117272738826842
397,1.7395082026940784097785210858497
398,1.7400148235544586401869185596082
399,1.7405201737209476581721933864191
400,1.7410242595606255342795500154280
401,1.7415270873928942018173180971805
402,1.7420286634899518216272491896928
403,1.7425289940772631849137289994812
404,1.7430280853340240472102759711831
405,1.7435259433936168589152460083850
406,1.7440225743440640014196127143154
407,1.7445179842284756455337249532507
408,1.7450121790454897353949829792404
409,1.7455051647497069589205682797235
410,1.7459969472521232192714889871334
411,1.7464875324205538673330483354103
412,1.7469769260800532777884968669199
413,1.7474651340133308478332860018192
414,1.7479521619611598423627262074504
415,1.7484380156227833695832035949248
416,1.7489227006563139166676762086841
417,1.7494062226791292939297551909558
418,1.7498885872682621507406969389856
419,1.7503697999607873416886281545941
420,1.7508498662542021248896592897769
421,1.7513287916068031446227104121463
422,1.7518065814380594798780359445598
423,1.7522832411289795949477501926550
424,1.7527587760224758057704833056512
425,1.7532331914237226413778258102279
426,1.7537064926005127072702871897189
427,1.7541786847836075353392743009824
428,1.7546497731670834340104842597757
429,1.7551197629086762509823799470989
430,1.7555886591301179106523770096643
431,1.7560564669174722298710733601666
432,1.7565231913214671615245839151658
433,1.7569888373578188038276491371922
434,1.7574534100075582732497842550099
435,1.7579169142173492647342810043650
436,1.7583793548998042001840987328472
437,1.7588407369337971265694579903228
438,1.7593010651647723457047115733014
439,1.7597603444050494569827595342138
440,1.7602185794341258842641118229478
441,1.7606757749989740467556706366001
442,1.7611319358143367375087703548642
443,1.7615870665630203572139858148423
444,1.7620411718961806226454827951208
445,1.7624942564336100803954571661930
446,1.7629463247640184502288895835739
447,1.7633973814453129672080963286112
448,1.7638474310048719407693159719713
449,1.7642964779398193712356917059546
450,1.7647445267172927761880977795689
451,1.7651915817747117297670965979469
452,1.7656376475200399562339192211053
453,1.7660827283320467208406490169402
454,1.7665268285605639069371977600269
455,1.7669699525267424031657873119765
456,1.7674121045233030977195399226324
457,1.7678532888147871753499380991161
458,1.7682935096378021129968879997787
459,1.7687327712012658879432668876706
460,1.7691710776866490408135405578436
461,1.7696084332482124431177047081425
462,1.7700448420132439823672420649626
463,1.7704803080822927685097511337190
464,1.7709148355293990225639031819769
465,1.7713484284023236161657020870448
466,1.7717810907227743926977314687863
467,1.7722128264866285504930710514174
468,1.7726436396641561037287198720955
469,1.7730735342002368976802710191623
470,1.7735025140145787028522302578310
471,1.7739305830019306550650606917800
472,1.7743577450322963390840783827656
473,1.7747840039511418666658086718162
474,1.7752093635796064529886505917728
475,1.7756338277147044141951341720302
476,1.7760574001295310998235269106710
477,1.7764800845734630930966151088490
478,1.7769018847723573550283233563946
479,1.7773228044287482017017733392199
480,1.7777428472220425092711782293713
481,1.7781620168087116975317165220826
482,1.7785803168224840608130699961717
483,1.7789977508745328261629652862253
484,1.7794143225536627585423974730683
485,1.7798300354264967898767179478695
486,1.7802448930376572567209975229777
487,1.7806588989099485952887992506700
488,1.7810720565445360902948392657177
489,1.7814843694211239056759759170438
490,1.7818958409981302601980305250260
491,1.7823064747128618821117691744725
492,1.7827162739816863309228055748972
493,1.7831252422002021611610133850640
494,1.7835333827434080220630151324049
495,1.7839406989658688855350077139420
496,1.7843471942018826466881991522856
497,1.7847528717656427823334860739409
498,1.7851577349514010125549596810055
499,1.7855617870336274625462444826212
500,1.785965031267170455041246369824
501,1.786367470887411679209956321324
502,1.786769109110424191025242668304
503,1.787169949133124713052490284418
504,1.787569994133428077317923623974
505,1.787969247270396658539336843161
506,1.788367711684390527617928453710
507,1.788765390497216173228766708340
508,1.789162286812273431274174266937
509,1.789558403714698852891948887594
510,1.789953744271511564053489979977
511,1.790348311531754847625484024915
512,1.790742108526637347884755734375
513,1.791135138269672513016753992336
514,1.791527403756816951855420235720
515,1.791918907966608078955675761381
516,1.792309653860299258181869544934
517,1.792699644381993519398212736410
518,1.793088882458777633493086583744
519,1.793477371000853327529913106801
520,1.793865112901668496875027384601
521,1.794252111038045209381254122458
522,1.794638368270308777676956078771
523,1.795023887442414336566501308892
