Eigenstate,Potential Energy
1,0.500000000020029770333539958443864716
2,0.64623093778185845755092169814837761
3,0.73633761008902465564712938190849794
4,0.79966527861416791606072901340636402
5,0.8480465766713242937360072052874178
6,0.8870659990144048253377004651472908
7,0.9197208270812257481714702478684864
8,0.9477838472485502154450491075796453
9,0.9723835585225545559610329059179077
10,0.9942802150517476294578422753351592
11,1.0140093869771265484553515664549794
12,1.0319621696032912931665061164591321
13,1.0484326929960272458498236796774454
14,1.0636476548384613874646764984646875
15,1.0777854362452439657916880311964164
16,1.090988906632991606839045682727082
17,1.103374257181790478661190139636852
18,1.115037251841395055993151761552221
19,1.126057750435205324192538150329508
20,1.136503046294202975444544287419858
21,1.146430372338648438879290610917984
22,1.155888812236820923849417823801937
23,1.164920778341543020437295584086619
24,1.173563169090602825709038138302635
25,1.181848285802680316234098111304027
26,1.189804566484935088531149517089989
27,1.197457178795582190224323463855689
28,1.204828503402931957121034980311967
29,1.211938531187341950977565023496940
30,1.218805192083041524157358882857858
31,1.225444629210851037829793809537981
32,1.231871428874918176010311581493833
33,1.238098814686945993895308732610738
34,1.244138812330841073007718636429782
35,1.250002390141515090144932003561419
36,1.255699579638094228714841403445332
37,1.261239579347706312647455221743195
38,1.266630844625596800025387485236937
39,1.271881165679476124137735037724913
40,1.276997735610180086181148744602064
41,1.281987209963974730163638719412786
42,1.286855759036844529104506679090130
43,1.291609113964616366743180298336349
44,1.296252607464677783495290350544372
45,1.300791209957478386422170724578122
46,1.305229561682867040407405326020856
47,1.309572001332840845420230323536822
48,1.313822591644695540512372963333482
49,1.317985142333904431310967142999288
50,1.32206323069193022412752406609157
51,1.32606022012870718733935375117076
52,1.32997927690118584640796114736680
53,1.33382338523688230035929564686016
54,1.33759536103381311609995612984150
55,1.34129786429472126443620267037521
56,1.34493341043342399154134559598259
57,1.34850438057391455450140764333849
58,1.35201303094805256328086302597078
59,1.35546150148492372417756157174141
60,1.35885182367392527213579671763948
61,1.36218592777406915178370996870756
62,1.36546564943369400194934522136034
63,1.36869273577753510939043926923346
64,1.37186885101178901755215410370069
65,1.37499558159227463619511941657159
66,1.37807444099594535868297870391110
67,1.38110687413174440239357016898828
68,1.38409426142303942690999615644772
69,1.38703792259055981392158667566320
70,1.38993912016183172450129411985175
71,1.39279906273050734569527053757257
72,1.39561890798668649598099768964526
73,1.39839976553727575274711266292391
74,1.40114269953361141639559139403495
75,1.40384873112194152456417284487365
76,1.40651884073091257321186388567931
77,1.40915397020890420289240603180932
78,1.41175502482288931036054071347082
79,1.41432287512945022566378718427699
80,1.41685835872764346922810059658916
81,1.41936228190255626196923986788841
82,1.42183542116763651090825057428394
83,1.42427852471318925897984009721761
84,1.42669231376780829600635959610942
85,1.42907748387895235163644430038019
86,1.43143470611835942565809286342223
87,1.43376462821753534029611159457843
88,1.43606787563812922136817566639568
89,1.43834505258162511301227856838560
90,1.44059674294243571396908080195284
91,1.44282351120816277135198802925261
92,1.44502590331050037029865790591042
93,1.44720444742999510284203197020800
94,1.44935965475763417060088355229774
95,1.45149202021601132186085551601593
96,1.45360202314261870150055424856948
97,1.45569012793762835010766185361155
98,1.45775678467835421433531774646016
99,1.45980242970243205835989787273871
100,1.46182748616160832588525685451873
101,1.46383236454789969798401428106606
102,1.46581746319375951734539747455612
103,1.46778316874777933588625287962183
104,1.46972985662734657797146687205730
105,1.47165789144958623773308252096267
106,1.47356762744182376473373619600432
107,1.47545940883272821026459873516244
108,1.47733357022521546701362218278673
109,1.47919043695212284130574074720489
110,1.48103032541560377699160973226556
111,1.48285354341112568886293276955624
112,1.48466039043690442983898385669017
113,1.48645115798955338037480854531845
114,1.48822612984667639078530081588654
115,1.48998558233709335867674150138742
116,1.49172978459933889202918031357918
117,1.49345899882904279546627473102537
118,1.49517348051576008614363024519072
119,1.49687347866978453197038593258247
120,1.49855923603945386264381708416299
121,1.50023098931941653673248817521854
122,1.50188896935031103491070026606013
123,1.50353340131027645651500880324538
124,1.50516450489869551678486817167005
125,1.50678249451254147588643235842618
126,1.50838757941568533352089585783095
127,1.50997996390149904503243707034932
128,1.51155984744906792774088743194582
129,1.51312742487331335298616612301588
130,1.51468288646930843750424735856874
131,1.51622641815105404363635686934858
132,1.51775820158496742067228856329203
133,1.51927841431832403804477881403556
134,1.52078722990288188513302679955556
135,1.52228481801389940409095712308481
136,1.52377134456475453458544982839681
137,1.52524697181735904138618974594622
138,1.52671185848854868375818483380083
139,1.52816615985262767970236951569192
140,1.52961002784023047212148079146782
141,1.53104361113365924649839908214695
142,1.53246705525884757640707150721100
143,1.53388050267409192300689290520355
144,1.53528409285568553503433925216502
145,1.53667796238058510804666594322149
146,1.53806224500623269292148017987568
147,1.53943707174764714065002872038650
148,1.54080257095190041242866907021948
149,1.54215886837008055597875756197234
150,1.54350608722684498894799270895466
151,1.54484434828766000362238231091764
152,1.54617376992381679209352822262546
153,1.54749446817531294154909148417963
154,1.54880655681168329890238593533429
155,1.55011014739085844072725577521323
156,1.55140534931612861483433725494281
157,1.55269226989128420006474917429591
158,1.55397101437400450237478680071586
159,1.5552416860275585600172123571374
160,1.5565043861708842953289821351879
161,1.5577592142271045092165605366909
162,1.5590062677705391794103013034255
163,1.5602456425722689157573754548288
164,1.5614774326443042091183585538795
165,1.5627017302824090740552416393618
166,1.5639186261076296008697231434945
167,1.5651282091065746492813516047986
168,1.5663305666704913726291274116151
169,1.5675257846331806346572734950471
170,1.5687139473077920619709231307573
171,1.5698951375225389265926529480828
172,1.5710694366553707252477958113849
173,1.5722369246676388576793379195808
174,1.5733976801367912474764667884978
175,1.5745517802881298903197598457327
176,1.5756993010256610359658270751344
177,1.5768403169620712644788746540335
178,1.5779749014478586110753195966983
179,1.5791031265996451844972006654139
180,1.5802250633277022252832140701762
181,1.5813407813627102524933743771984
182,1.5824503492817819942425176913683
183,1.5835538345337711512863942866128
184,1.5846513034638912351660921900050
185,1.5857428213376662890037881299538
186,1.5868284523642344595387375219392
187,1.5879082597190282208703619442345
188,1.5889823055658466861922146788011
189,1.5900506510783437385737134772566
190,1.5911133564609476318334287295584
191,1.5921704809692312840214538387162
192,1.5932220829297496456788891754246
193,1.5942682197593624466868239997457
194,1.5953089479840556624512219207954
195,1.5963443232572796317457004014292
196,1.5973744003778175180747961249190
197,1.5983992333071984898408672335012
198,1.5994188751866697812556996081049
199,1.6004333783537404678121707817428
200,1.6014427943583108964769162406263
201,1.6024471739783987469826193271097
202,1.6034465672354751003311983424871
203,1.6044410234094211691897896864670
204,1.6054305910531173050409091993228
205,1.6064153180066742473987058534942
206,1.6073952514113196337881601020714
207,1.6083704377229456411125123178431
208,1.6093409227253319798135048964954
209,1.6103067515430499836518502544092
210,1.6112679686540592907068658525841
211,1.6122246179020044745515796650179
212,1.6131767425082218527251932939316
213,1.6141243850834608503907861361093
214,1.6150675876393348948616325360505
215,1.6160063915995010472206631233818
216,1.6169408378105823254834591544562
217,1.6178709665528366783400344819565
218,1.6187968175505815819181570212519
219,1.6197184299823775324969161129538
220,1.6206358424909829432910176148549
221,1.6215490931930783475881356924411
222,1.6224582196887771055972731612163
223,1.6233632590709161758316581840701
224,1.6242642479341420103165643204539
225,1.6251612223837941301567649598009
226,1.6260542180445899193964462046021
227,1.6269432700691192800100284025664
228,1.6278284131461509582150815496226
229,1.6287096815087576942425568633570
230,1.6295871089422648817924676412416
231,1.6304607287920245264293587866980
232,1.6313305739710249118218744016090
233,1.6321966769673309593145233172626
234,1.6330590698513714268808388104853
235,1.6339177842830661185411585646819
236,1.6347728515188028029964419092895
237,1.6356243024182674615877907113828
238,1.6364721674511295965752071157553
239,1.6373164767035880352975919543569
240,1.6381572598847793836124890807456
241,1.6389945463330534099451688145186
242,1.6398283650221182158778024455689
243,1.6406587445670592240320685331540
244,1.6414857132302336714610183538209
245,1.6423092989270449816405381413133
246,1.6431295292315995336071525121920
247,1.6439464313822472100066056832293
248,1.6447600322870133045861888850514
249,1.6455703585289167576249649432891
250,1.6463774363711851034009076083968
251,1.6471812917623640291005251014473
252,1.6479819503413243430640740178344
253,1.6487794374421714239629509533738
254,1.6495737780990568071595603436491
255,1.6503649970508957876723820699560
256,1.6511531187459911245062305768316
257,1.6519381673465692370853167779227
258,1.6527201667332253378410081364986
259,1.6534991405092843037979883676496
260,1.6542751120050776728563089451252
261,1.6550481042821370778196485121791
262,1.6558181401373088428948776313796
263,1.6565852421067885925427808682882
264,1.6573494324700813228309242769206
265,1.6581107332538854598139253761588
266,1.6588691662359030719713919781059
267,1.6596247529485794492331326782116
268,1.6603775146827720815883577029689
269,1.6611274724913533064756463932657
270,1.6618746471927423483753927301416
271,1.6626190593743760338385245321020
272,1.6633607293961121607930687288142
273,1.6640996773935729645200245789652
274,1.6648359232814258885931511768791
275,1.6655694867566055356391036834706
276,1.6663003873014750755470138094169
277,1.6670286441869345944182237876567
278,1.6677542764754681381802989055253
279,1.6684773030241409533106074086323
280,1.6691977424875390175155442867512
281,1.6699156133206587491690076291180
282,1.6706309337817443917587517468780
283,1.6713437219350762857673905374467
284,1.6720539956537071845035963034612
285,1.6727617726221534211243102071827
286,1.6734670703390369515736687816539
287,1.6741699061196833327099864311105
288,1.6748702970986720373770045345467
289,1.6755682602323437544640691376700
290,1.6762638123012654064625855615495
291,1.6769569699126507254392346674530
292,1.6776477495027392723127704246863
293,1.6783361673391378051891757416864
294,1.6790222395231190336497946281710
295,1.6797059819918798461176428931871
296,1.6803874105207665958417826493855
297,1.6810665407254573772047317088839
298,1.6817433880641106090844129898762
299,1.6824179678394767281056782773289
300,1.6830902952009747423648719405054
301,1.6837603851467340570423680154290
302,1.6844282525256036648134680567198
303,1.6850939120391258741634897358810
304,1.6857573782434781531140432873809
305,1.6864186655513845168639044938981
306,1.6870777882339957225417540990437
307,1.6877347604227354530212142841804
308,1.6883895961111199682238611048455
309,1.6890423091565473131729089793802
310,1.6896929132820564179412117525722
311,1.6903414220780596843932244887911
312,1.6909878490040465728509512439774
313,1.6916322073902595814294542128475
314,1.6922745104393444223130171600404
315,1.6929147712279737146118634971462
316,1.6935530027084455694387922609514
317,1.6941892177102546058078154096134
318,1.6948234289416407485967384663232
319,1.6954556489911129501332135513185
320,1.6960858903289478366593609914830
321,1.6967141653086671986065720135043
322,1.6973404861684904391087003454851
323,1.6979648650327654947896756649678
324,1.6985873139133772059626923299624
325,1.6992078447111348982187538603458
326,1.6998264692171374126283565431689
327,1.7004431991141184053089683719396
328,1.7010580459777691055501165286468
329,1.7016710212780435073513262457628
330,1.7022821363804424260364267265149
331,1.7028914025472778585172306483928
332,1.7034988309389187084275654767828
333,1.7041044326150182546623699391014
334,1.7047082185357215473241830640067
335,1.7053101995628570459887665979163
336,1.7059103864611085583202849527111
337,1.7065087898991703512613592884303
338,1.7071054204508864936283618855608
339,1.7077002885963704945982411904956
340,1.7082934047231113294057814777598
341,1.7088847791270615658079042150249
342,1.7094744220137100884431856496114
343,1.7100623434991390588543267495964
344,1.7106485536110651048597865149525
345,1.7112330622898665585870911723225
346,1.7118158793895942179418300798183
347,1.7123970146789691968492724459461
348,1.7129764778423646759716399697537
349,1.7135542784807750988041598231540
350,1.7141304261127703554691936525257
351,1.7147049301754370417914269306152
352,1.7152778000253064759976629120639
353,1.7158490449392687573990445184903
354,1.7164186741154742815112960854508
355,1.7169866966742230768758794091342
356,1.7175531216588401733509268557928
357,1.7181179580365402408960536474876
358,1.7186812146992807428382963010023
359,1.7192429004645993487445988193800
360,1.7198030240764445448065237066029
361,1.7203615942059911865929130993925
362,1.7209186194524474757578974168019
363,1.7214741083438479563048940393292
364,1.7220280693378375543877949292046
365,1.7225805108224448980050096423095
366,1.7231314411168437942439651942185
367,1.7236808684721057560750360793106
368,1.7242288010719403674130182670180
369,1.7247752470334281189805476405453
370,1.7253202144077414281380633479535
371,1.7258637111808566959795583320578
372,1.7264057452742563581629181626322
373,1.7269463245456208961804939795795
374,1.7274854567895151175399462967411
375,1.7280231497380593964150164800027
376,1.7285594110615973309726782870767
377,1.7290942483693516065775565512918
378,1.7296276692100712322755079957991
379,1.7301596810726719903486863538929
380,1.7306902913868668556972698368800
381,1.7312195075237892604742777183580
382,1.7317473367966063221335312167558
383,1.7322737864611267095431574028874
384,1.7327988637163981108550263221255
385,1.7333225757052979243754202595512
386,1.7338449295151178310787285419668
387,1.7343659321781379980899427391661
388,1.7348855906721948499224826431796
389,1.7354039119212430821448978686093
390,1.7359209027959091065694414377540
391,1.7364365701140362448895095999835
392,1.7369509206412252791287918381515
393,1.7374639610913678323739287640585
394,1.7379756981271711608725897308266
395,1.7384861383606772143540998744437
396,1.7389952883537756154243675118808
397,1.7395031546187101879273937115233
398,1.7400097436185790423911867011303
399,1.7405150617678267843330017673661
400,1.7410191154327331453650035156048
401,1.7415219109318940860030491813656
402,1.7420234545366961153782366061283
403,1.7425237524717866485742196156388
404,1.7430228109155382946624136372778
405,1.7435206360005045408634373485744
406,1.7440172338138729418519105755645
407,1.7445126103979129309071383601398
408,1.7450067717504157560865272378627
409,1.7454997238251294024806273654882
410,1.7459914725321910150111443228812
411,1.7464820237385510817717511179980
412,1.7469713832683929604835922936363
413,1.7474595569035488271067398155936
414,1.7479465503839084704360388596984
415,1.7484323694078252166254071338169
416,1.7489170196325154132559762178641
417,1.7494005066744543214169844553652
418,1.7498828361097655790178625640717
419,1.7503640134746085138250599572347
420,1.7508440442655582881279097502200
421,1.7513229339399828271989054871221
422,1.7518006879164158131329948039235
423,1.7522773115749235801877734072708
424,1.7527528102574695253308073700524
425,1.7532271892682724133355535748416
426,1.7537004538741621832472880947479
427,1.7541726093049307408294227659501
428,1.7546436607536777506586456791200
429,1.7551136133771553402369806783938
430,1.7555824722961045782059933177342
431,1.7560502425955912302972321158542
432,1.7565169293253379425119645062714
433,1.7569825375000481894063044852860
434,1.7574470720997330853972042210916
435,1.7579105380700288827412189524764
436,1.7583729403225130571543915442176
437,1.7588342837350171424194571872733
438,1.7592945731519352960217200826898
439,1.7597538133845292770941340668613
440,1.7602120092112309078606699494736
441,1.7606691653779391784064207284057
442,1.7611252865983155583956496517803
443,1.7615803775540771634076572965089
444,1.7620344428952823952354791370308
445,1.7624874872406183867797429316048
446,1.7629395151776812758601122500796
447,1.7633905312632564770854547825734
448,1.7638405400235921699564867201936
449,1.7642895459546738436772797186008
450,1.7647375535224920510880045917237
451,1.7651845671633108747841085357250
452,1.7656305912839299467405886341028
453,1.7660756302619457644829477143898
454,1.7665196884460086927234608587634
455,1.7669627701560792743039797535874
456,1.7674048796836791474131307700447
457,1.7678460212921412647530725909393
458,1.7682861992168558105199119678856
459,1.7687254176655143290904469104865
460,1.7691636808183517077245756106484
461,1.7696009928283838629753046240507
462,1.7700373578216443438223976921921
463,1.7704727798974184552669979122661
464,1.7709072631284730632576654228764
465,1.7713408115612860496491559621283
466,1.7717734292162725478546847027049
467,1.7722051200880072396727189304302
468,1.7726358881454477288922937621680
469,1.7730657373321514683375262004347
470,1.7734946715664937648547847610209
471,1.7739226947418811293120235647113
472,1.7743498107269642691841280700834
473,1.7747760233658460745881083488029
474,1.7752013364782921017234138466799
475,1.7756257538599324764324721093331
476,1.7760492792824677316474079310174
477,1.7764719164938689116782429507066
478,1.7768936692185766192905996502556
479,1.7773145411576978949147850844627
480,1.7777345359892013225245478660609
481,1.7781536573681089130177973421425
482,1.7785719089266883338411826808167
483,1.7789892942746408648119495844919
484,1.7794058169992878998448525055213
485,1.7798214806657574714146805282358
486,1.7802362888171653824991899812678
487,1.7806502449747977947371357912119
488,1.7810633526382898692378302386944
489,1.7814756152858036880918466344619
490,1.7818870363742033195761476246454
491,1.7822976193392291612013032470663
492,1.7827073675956701486515524634787
493,1.7831162845375338054865915171463
494,1.7835243735382152275042758203554
495,1.7839316379506631941152256754716
496,1.7843380811075466510052902547665
497,1.7847437063214172494567357533328
498,1.7851485168848718874313316806679
499,1.7855525160707127495818333990868
500,1.785955707132106976507973905518
501,1.786358093302741709108485075401
502,1.786759677796981963019675544118
503,1.787160463810022801072684766575
504,1.787560454518043647409516131648
505,1.787959653078357590521014314931
506,1.788358062629561405089013572683
507,1.788755686291684140450341925276
508,1.789152527166333915427972575644
509,1.789548588336841150202348868351
510,1.789943872868404288238766685226
511,1.790338383808231239123261645132
512,1.790732124185680442277267746000
513,1.791125097012400167061876380451
514,1.791517305282466725506887337939
515,1.791908751972521971736420956819
516,1.792299440041908298252245491736
517,1.792689372432802203639148080200
518,1.793078552070348216902701628224
519,1.793466981862789960209210539300
520,1.793854664701601206856531967311
521,1.794241603461613729530158149652
522,1.794627801001146214871636993393
523,1.795013260162130681342553124881
