Eigenstate,Potential Energy
1,0.500000000074223607559447747589949592
2,0.64623093813560840532388243555291325
3,0.73633761112814032666109808719865485
4,0.79966528077853789107482304188243820
5,0.8480465804204795797192879970134372
6,0.8870660048159337132568562750996343
7,0.9197208354065069424862863633546901
8,0.9477838585709749560089170770897858
9,0.9723835733167013577676361468299249
10,0.9942802337929647672883350776702012
11,1.0140094101413064910169681000319296
12,1.0319621976667429535737147570493810
13,1.0484327264354014854901450144742777
14,1.0636476941307071690928547468215042
15,1.0777854818675829985758128154562938
16,1.090988959062904609031702314680757
17,1.103374316897010999321091591529580
18,1.115037319319908367967895781914744
19,1.126057826155250812478385613288843
20,1.136503130734278993343478748620014
21,1.146430465977518944466822432063407
22,1.155888915553523426143846839542550
23,1.164920891815397506444151447542934
24,1.173563293201221434303913765859419
25,1.181848421029977589516993468990279
26,1.189804713309138676227033190130594
27,1.197457337697243914466268783378853
28,1.204828674862939167747885334470306
29,1.211938715686929118072145615701028
30,1.218805390103802026789752839125128
31,1.225444841234749117106155795662454
32,1.231871655384301027424422554932383
33,1.238099056164555979241048462569329
34,1.244139069259828036162918440671594
35,1.250002663005448764186932626490234
36,1.255699868920976724297275347923291
37,1.261239885533984679519110748631513
38,1.266631168200175655125533616721293
39,1.271881507127730340948027919581689
40,1.276998095417967541019923837429121
41,1.281987588617649101925307864753319
42,1.286856157023268149614548041341573
43,1.291609531771173119448158916046471
44,1.296253045579286048661003384734176
45,1.300791668868604031390039787231303
46,1.305230041879536453774152924694387
47,1.309572503304654014270043350426575
48,1.313823115881839170053632957972432
49,1.317985689327165106458346629804802
50,1.32206380093270761273076105839228
51,1.32606081410902728489737396036199
52,1.32997989511371426222469823911611
53,1.33382402817493758519904592819340
54,1.33759602919138013148802928525602
55,1.34129855816646459382690944393931
56,1.34493413051470139364201372835147
57,1.34850512736079045909939977538681
58,1.35201380493731160997215069269919
59,1.35546230317408434444054257066553
60,1.35885265356125331523447827261480
61,1.36218678635859155502021299467865
62,1.36546653721521250581789145140590
63,1.36869365325664001821379550412206
64,1.37186979868987300620757257776444
65,1.37499655997154660356061999969281
66,1.37807545057944432845627620981368
67,1.38110791542335347195573503832888
68,1.38409533492749976492413243459737
69,1.38703902881348470737372440528144
70,1.38994025960972067590601893121891
71,1.39280023591076022120360469863955
72,1.39562011540761772514128022687808
73,1.39840100770812858068288644161089
74,1.40114397696457220917641261726010
75,1.40385004432415412855710116990367
76,1.40652019021649272921217550884838
77,1.40915535649095401584292215604490
78,1.41175644841551177547910892283255
79,1.41432433654776381180837004788026
80,1.41685985848779676033837417007940
81,1.41936382052174265743314775168647
82,1.42183699916410898571097329733348
83,1.42428014260627518450155042178651
84,1.42669397207792432234400439909970
85,1.42907918312761935233343421608030
86,1.43143644682821750573423198492704
87,1.43376641091235890847877717062380
88,1.43606970084284212743402030057176
89,1.43834692082231585115709944743249
90,1.44059865474637269313189111113210
91,1.44282546710380965342761487516837
92,1.44502790382753147718149505921121
93,1.44720649309931089325191506704785
94,1.44936174611137678765034644974876
95,1.45149415778758021233148359585552
96,1.45360420746668630780436154604523
97,1.45569235955015587591811974433528
98,1.45775906411660746488086339931664
99,1.45980475750499735638157909483227
100,1.46182986286840850426854996683809
101,1.46383479070021017008369977896748
102,1.46581993933422442603104422099023
103,1.46778569542042778234455989342819
104,1.46973243437760893131108232064197
105,1.47166052082431052644603566662997
106,1.47357030898929215107699559828774
107,1.47546214310267354863440736231292
108,1.47733635776883794739450646401824
109,1.47919327832210671888565458186935
110,1.48103322116613418904406980017261
111,1.48285649409790556000663845493393
112,1.48466339661717146679522849649159
113,1.48645422022209715735283429710155
114,1.48822924869185552663571968164085
115,1.48998875835685278696328590009860
116,1.49173301835722722517927640181781
117,1.49346229089022978417132178812731
118,1.49517683144705417519037592021166
119,1.49687688903965051369536871635584
120,1.49856270641803062921381639799209
121,1.50023452027853493246467248110239
122,1.50189256146351180985728355633906
123,1.50353705515282832254847581779295
124,1.50516822104761330743116817723899
125,1.50678627354660441116504696555982
126,1.50839142191545539106247923451582
127,1.50998387044933943875635121115591
128,1.51156381862916169538724915097104
129,1.51313146127168205380885129384141
130,1.51468698867383096144385326141383
131,1.51623058675148553330437302656283
132,1.51776243717295830749096613691743
133,1.51928271748743919389907215346399
134,1.52079160124861989090489566526455
135,1.52228925813371193645906774256355
136,1.52377585405806587248664185510080
137,1.52525155128558569354882020046353
138,1.52671650853511913873109526846886
139,1.52817088108300227981724364681205
140,1.52961482086192141284035857607768
141,1.53104847655625070261236968172414
142,1.53247199369401595656702029810288
143,1.53388551473562625408144209294495
144,1.53528917915950797780542807562047
145,1.53668312354477160576803279946561
146,1.53806748165103375428087290414649
147,1.53944238449550875869139154957511
148,1.54080796042748512100627155607384
149,1.54216433520028862533147841495358
150,1.54351163204083576199753300124222
151,1.54484997171687337461662770617204
152,1.54617947260199482923187210212982
153,1.54750025073852165524416227538638
154,1.54881241989833455734926646836827
155,1.55011609164173203446889574239281
156,1.55141137537439447202957928589923
157,1.55269837840252475418273128414987
158,1.55397720598623721405813425936279
159,1.5552479613912585948743997229601
160,1.5565107459390073594349770803310
161,1.5577656590551098441197892312819
162,1.5590127983164127184630517044738
163,1.5602522594965466036057903451473
164,1.5614841366100954862084805488088
165,1.5627085219554205280311713285010
166,1.5639255061561887867598997010042
167,1.5651351782016540803898261601365
168,1.5663376254857326840695305694043
169,1.5675329338449189214877199589146
170,1.5687211875950803939103118079932
171,1.5699024695671730413195451590908
172,1.5710768611419139023058612274129
173,1.5722444422834469750349048990381
174,1.5734052915720380227969026114187
175,1.5745594862358323090640332171024
176,1.5757071021817049684018137533509
177,1.5768482140252372737656419638745
178,1.5779828951198479545724719218333
179,1.5791112175851060104874980602409
180,1.5802332523342559673195139687278
181,1.5813490691009782236055903280112
182,1.5824587364654121832656040709296
183,1.5835623218794652235962052024548
184,1.5846598916914317401355823239689
185,1.5857515111699440765192671667690
186,1.5868372445272763079407905852531
187,1.5879171549420246787135721447531
188,1.5889913045811801302433247782364
189,1.5900597546216166504969752812703
190,1.5911225652710110960392291881239
191,1.5921797957882137091842011626674
192,1.5932315045030857124581704711757
193,1.5942777488358222842157524918912
194,1.5953185853157742561859947821546
195,1.5963540695997864653006494429866
196,1.5973842564900664516977272344596
197,1.5984091999515978782156143767599
198,1.5994289531291128333491553731333
199,1.6004435683636358515168333548003
200,1.6014530972086135908310282689629
201,1.6024575904456411447842155571492
202,1.6034570980997983639957075444797
203,1.6044516694546068427343851218246
204,1.6054413530666191851141846454432
205,1.6064261967796505163084082875262
206,1.6074062477386652575160134507098
207,1.6083815524033250353410202175949
208,1.6093521565612119470259728445096
209,1.6103181053407329244045480672043
210,1.6112794432237166922094138744699
211,1.6122362140577106797300692553139
212,1.6131884610679881129815068117475
213,1.6141362268692696653109435728456
214,1.6150795534771746421654107571162
215,1.6160184823194009062862354656645
216,1.6169530542466474978211469576075
217,1.6178833095432839084311640820303
218,1.6188092879377749818775792177616
219,1.6197310286128647140607241358943
220,1.6206485702155314606743717336701
221,1.6215619508667124548025651702306
222,1.6224712081708148318618571612796
223,1.6233763792250067227577637996591
224,1.6242775006283034745923068332846
225,1.6251746084904515555044741089171
226,1.6260677384406136816238708987671
227,1.6269569256358638090241767382129
228,1.6278422047694938009174061590448
229,1.6287236100791389222735544401492
230,1.6296011753547268481440930501517
231,1.6304749339462519749957287282500
232,1.6313449187713854440102919054435
233,1.6322111623229158618921728139406
234,1.6330736966760368652860540150824
235,1.6339325534954746999425906986882
236,1.6347877640424655134389369867370
237,1.6356393591815859816204064234553
238,1.6364873693874389998129276136385
239,1.6373318247511998744270677850680
240,1.6381727549870251684110774903040
241,1.6390101894383284819414663811995
242,1.6398441570839260243428561049236
243,1.6406746865440560080527822060959
244,1.6415018060862735529084831609246
245,1.6423255436312254739104838538248
246,1.6431459267583074710743798839377
247,1.6439629827112051031993259771023
248,1.6447767384033261261544636061105
249,1.6455872204231191642438799432234
250,1.6463944550392890988175405166551
251,1.6471984682059070736048487568492
252,1.6479992855674179147325406218291
253,1.6487969324635500370971166055913
254,1.6495914339341274934145063500656
255,1.6503828147237880454429694269172
256,1.6511710992866073422164460127924
257,1.6519563117906355961003083969810
258,1.6527384761223432008003528736195
259,1.6535176158909820942472278633067
260,1.6542937544328632521344015036608
261,1.6550669148155506252404691150728
262,1.6558371198419762453447707827752
263,1.6566043920544753496992709300372
264,1.6573687537387469742936243826606
265,1.6581302269277385405251406109254
266,1.6588888334054566023924196134183
267,1.6596445947107069668310733070080
268,1.6603975321407642202803794488602
269,1.6611476667549749307691815108362
270,1.6618950193782902490368109879307
271,1.6626396106047371920186972010195
272,1.6633814608008225876352961080054
273,1.6641205901088771233736608770897
274,1.6648570184503367070575293020071
275,1.6655907655289650147629227578374
276,1.6663218508340155036134540952438
277,1.6670502936433403728497502283252
278,1.6677761130264382272049097959868
279,1.6684993278474519451398138503582
280,1.6692199567681088448944108081715
281,1.6699380182506110372718015807346
282,1.6706535305604734615167358589380
283,1.6713665117693128168324025477490
284,1.6720769797575845461679916671678
285,1.6727849522172746796392803375637
286,1.6734904466545425624279150961035
287,1.6741934803923195265563313181343
288,1.6748940705728599084200121598257
289,1.6755922341602490602495237818985
290,1.6762879879428690881403906431679
291,1.6769813485358201577040022601606
292,1.6776723323833002523606945323609
293,1.6783609557609472901666911199104
294,1.6790472347781386362097667419073
295,1.6797311853802500978390518538010
296,1.6804128233508819884146930832274
297,1.6810921643140421914276653708674
298,1.6817692237362955418704326897271
299,1.6824440169288763278461337002123
300,1.6831165590497656631524559051124
301,1.6837868651057341424137772550130
302,1.6844549499543518718298587508956
303,1.6851208283059630488101738897621
304,1.6857845147256286681661523499414
305,1.6864460236350387835327914925610
306,1.6871053693143935873862916048626
307,1.6877625659042504917850022065011
308,1.6884176274073446884336489592893
309,1.6890705676903792775148524195294
310,1.6897214004857853006144845220874
311,1.6903701393934552728270118310375
312,1.6910167978824477273607388452706
313,1.6916613892926641655811721222359
314,1.6923039268365002169604508904273
315,1.6929444236004703287724226926778
316,1.6935828925468073613765889738960
317,1.6942193465150346278995689387541
318,1.6948537982235157297676828910936
319,1.6954862602709793298639558110746
320,1.6961167451380188647834254628651
321,1.6967452651885711153410511538164
322,1.6973718326713697499862781265004
323,1.6979964597213773553910345642721
324,1.6986191583611949315829209633392
325,1.6992399405024506138401463631028
326,1.6998588179471658588159289683212
327,1.7004758023891019158910262264239
328,1.7010909054150837731998059868981
329,1.7017041385063065534422070045325
330,1.7023155130396207914047415530785
331,1.7029250402887980320321284126532
332,1.7035327314257778105394909257174
333,1.7041385975218963933783808649086
334,1.7047426495490954643378864064894
335,1.7053448983811150709812901180394
336,1.7059453547946668897390746940565
337,1.7065440294705906821816049311167
338,1.7071409329949950016049573656395
339,1.7077360758603782147234516348370
340,1.7083294684667359301035315019675
341,1.7089211211226505472156165707367
342,1.7095110440463654235579541561780
343,1.7100992473668432979526175730111
344,1.7106857411248089640387605685686
345,1.7112705352737780136213658262542
346,1.7118536396810691250010370009822
347,1.7124350641288034619788593738429
348,1.7130148183148879956077155507737
349,1.7135929118539862939614549673163
350,1.7141693542784743226255976447361
351,1.7147441550393833438747152368723
352,1.7153173235073295972778099959259
353,1.7158888689734300464887574216012
354,1.7164588006502056070901224800747
355,1.7170271276724722211677609268261
356,1.7175938590982179888133374317509
357,1.7181590039094695960128446060670
358,1.7187225710131472833492250038133
359,1.7192845692419041010978634584664
360,1.7198450073549583890808821034561
361,1.7204038940389112266035907603543
362,1.7209612379085553345416632522921
363,1.7215170475076700256667303439029
364,1.7220713313098072276881373651222
365,1.7226240977190668158776367174872
366,1.7231753550708601334503864283133
367,1.7237251116326645922291078687451
368,1.7242733756047661428506353746036
369,1.7248201551209942475988497527192
370,1.7253654582494450695876943788410
371,1.7259092929931957321683588786891
372,1.7264516672910086056123983118297
373,1.7269925890180255883724287295490
374,1.7275320659864566919987737856184
375,1.7280701059462536218919443417910
376,1.7286067165857798107315455040531
377,1.7291419055324686944286810074670
378,1.7296756803534733986628780574979
379,1.7302080485563096764699808656892
380,1.7307390175894888543230955121593
381,1.7312685948431436628350726143188
382,1.7317967876496440709593503104003
383,1.7323236032842077990704162605466
384,1.7328490489655004753651356052814
385,1.7333731318562290575897938046464
386,1.7338958590637291795120938074297
387,1.7344172376405421722623867994278
388,1.7349372745849856981385597624017
389,1.7354559768417186723809142937224
390,1.7359733513022976628528189919925
391,1.7364894048057250854228519710422
392,1.7370041441389928042905617605932
393,1.7375175760376186116356262261081
394,1.7380297071861741685864776979144
395,1.7385405442188072653147073769188
396,1.7390500937197580520644134511232
397,1.7395583622238688719925738279177
398,1.7400653562170877049459848404977
399,1.7405710821369637889717358094116
400,1.7410755463731397205537280651575
401,1.7415787552678360835487536607084
402,1.7420807151163293531196585865361
403,1.7425814321674258965055170867581
404,1.7430809126239299648462738548675
405,1.7435791626431031426643395293177
406,1.7440761883371213652097387451107
407,1.7445719957735266215994580104121
408,1.7450665909756708481774133511584
409,1.7455599799231548744292863732758
410,1.7460521685522649372270024526980
411,1.7465431627564010247329603371061
412,1.7470329683865006339079684202151
413,1.7475215912514590220601247512158
414,1.7480090371185423776954043807264
415,1.7484953117137981960749195268414
416,1.7489804207224592905921345230402
417,1.7494643697893442899711456383679
418,1.7499471645192517860669798086564
419,1.7504288104773524123709376740437
420,1.7509093131895738367576736807555
421,1.7513886781429826223238712494979
422,1.7518669107861622396165836694533
423,1.7523440165295850681329869322687
424,1.7528200007459820025964357318688
425,1.7532948687707060451914704303391
426,1.7537686259020934924631073877137
427,1.7542412774018202034235587507436
428,1.7547128284952529645083682709475
429,1.7551832843717998657733910791923
430,1.7556526501852525524890390999004
431,1.7561209310541278578867008597658
432,1.7565881320620059687250715900987
433,1.7570542582578604637732882380997
434,1.7575193146563913254089394340114
435,1.7579833062383487503137782713936
436,1.7584462379508556626300139061796
437,1.7589081147077270933690536386639
438,1.7593689413897854106274200371739
439,1.7598287228451720844599529626727
440,1.7602874638896570602361248018942
441,1.7607451693069429030058570213123
442,1.7612018438489672792668780232812
443,1.7616574922362034266397391657514
444,1.7621121191579532337009671921938
445,1.7625657292726422635895746155640
446,1.7630183272081077487660092191261
447,1.7634699175618867291954056517889
448,1.7639205049014975553449517670661
449,1.7643700937647225997625864143783
450,1.7648186886598843330307183035583
451,1.7652662940661222706251761458131
452,1.7657129144336636355503777528024
453,1.7661585541840934834395621623355
454,1.7666032177106206827799432931239
455,1.7670469093783433779397506048093
456,1.7674896335245092359010330343131
457,1.7679313944587751764189116773348
458,1.7683721964634629856098278169175
459,1.7688120437938133311241510735842
460,1.7692509406782378255756799288813
461,1.7696888913185669924047857572906
462,1.7701258998902973517927991744308
463,1.7705619705428362350937313936938
464,1.7709971073997424934995820193082
465,1.7714313145589670746295834373132
466,1.7718645960930906028163967553242
467,1.7722969560495572488263665697362
468,1.7727283984509099100149989565307
469,1.7731589272950191831272783791518
470,1.7735885465553136599339721729161
471,1.7740172601810058186366945638039
472,1.7744450720973178146203726583342
473,1.7748719862057025276031688757654
474,1.7752980063840673754870116804050
475,1.7757231364869898241550395384793
476,1.7761473803459371136902749480407
477,1.7765707417694805408711441372840
478,1.7769932245435089809857494208026
479,1.7774148324314405455954194092789
480,1.7778355691744327782947042670504
481,1.7782554384915899470046376503979
482,1.7786744440801710094813162418590
483,1.7790925896157936401520526118620
484,1.7795098787526371463851181552326
485,1.7799263151236457596581557271195
486,1.7803419023407268952646182348348
487,1.7807566439949512384393108382299
488,1.7811705436567492627501687525857
489,1.7815836048761074185056215716377
490,1.7819958311827618641381867355574
491,1.7824072260863918849913353999302
492,1.7828177930768115981321890535378
493,1.7832275356241599289507341931104
494,1.7836364571790899646614755921591
495,1.7840445611729558886113885367979
496,1.7844518510180007515743177884591
497,1.7848583301075407776590826431432
498,1.7852640018161501625738059926687
499,1.7856688694998438744285557582357
500,1.786072936496260600808564570678
501,1.786476206124841601804862897365
502,1.786878681687012938244078080236
503,1.787280366466362557750692145176
504,1.787681263728820097437528776999
505,1.788081376722832266115402537926
506,1.788480708679539552024215865876
507,1.788879262812952120529536176326
508,1.789277042320124558682639210200
509,1.789674050381327715015471288475
510,1.790070290160223705845218042385
511,1.790465764804037337790624574904
512,1.790860477443727865917006727911
513,1.791254431194159723108959862684
514,1.791647629154272917632226140882
515,1.792040074407253494358667602803
516,1.792431770020702291933497008685
517,1.792822719046803093271161325754
518,1.793212924522491978178879739444
519,1.793602389469624684249875109276
520,1.793991116895144858020778658651
521,1.794379109791250017479808258945
522,1.794766371135559528835657016391
523,1.795152903891281062333279532353
