Eigenstate,Potential Energy
1,0.500000000021109077097591074787221065
2,0.64623093778890360435650299820749140
3,0.73633761010971918182185342388830225
4,0.79966527865727218235282029225360858
5,0.8480465767459895519464957848086211
6,0.8870659991299423887398835450240759
7,0.9197208272470219101407636083755086
8,0.9477838474740307379466911992368210
9,0.9723835588171681299641151329093718
10,0.9942802154249574557663093761047655
11,1.0140093874384057412446593760848457
12,1.0319621701621202314979388792007698
13,1.0484326936618919856563503094337997
14,1.0636476556208526838252602049198765
15,1.0777854371536566633667310008153012
16,1.090988907676924261552537103352433
17,1.103374258370745129792300381500139
18,1.115037253184877099122950398680237
19,1.126057751942723453612492139891373
20,1.136503047975269175553129735292978
21,1.146430374202778010866102980565687
22,1.155888814293532538285313328453127
23,1.164920780600358789212714293605933
24,1.173563171561048388650380684818700
25,1.181848288494284939015909159467085
26,1.189804569407231769396846919550420
27,1.197457181958107773660715264426159
28,1.204828506815227253085808187587650
29,1.211938534858951858609368532991948
30,1.218805196023515159141797332976941
31,1.225444633429741862776556395231817
32,1.231871433381784133333972710877616
33,1.238098819491349640797072948702672
34,1.244138817442349718236045775660815
35,1.250002395569700932275670158078818
36,1.255699585392534495740630542558310
37,1.261239585437983402704983870132950
38,1.266630851061298423119988219713187
39,1.271881172470195444749563055996007
40,1.276997742765515866657181325413574
41,1.281987217493531474815954797297959
42,1.286855766950232628948562881862374
43,1.291609122271452244820682903904304
44,1.296252616174584040735253807157818
45,1.300791219080083948001214691206777
46,1.305229571227807302576561202810445
47,1.309572011309757822770743140721814
48,1.313822602063238013657371046466768
49,1.317985153203728094963577354942144
50,1.32206324202269783555915322114826
51,1.32606023193008871520453862083522
52,1.32997928918285861992448083242944
53,1.33382339800853115883419362192894
54,1.33759537430513055879382589394820
55,1.34129787807540760075953873648257
56,1.34493342473318749157803492454499
57,1.34850439540247159985553104725326
58,1.35201304631512779824394381343151
59,1.35546151740025020721422841576918
60,1.35885184014724462768656844852976
61,1.36218594481513172238425932961266
62,1.36546566705225900066616577062455
63,1.36869275398337077257334560125048
64,1.37186886981467275790449210971161
65,1.37499560100199319616296715193245
66,1.37807446102229496416496598096529
67,1.38110689478453091677326900526220
68,1.38409428271207850541311365734214
69,1.38703794452567705830045186140456
70,1.38993914275286283804935752439341
71,1.39279908598729828859454740406433
72,1.39561893191909364098557204887105
73,1.39839979015516604120598320402808
74,1.40114272484686251461831743282266
75,1.40384875714044198053290225121879
76,1.40651886746456197364345814376494
77,1.40915399766761333065450473453056
78,1.41175505301658030224551350045731
79,1.41432290406805673052463006373842
80,1.41685838842111080648041350739361
81,1.41936231236084158046352925735877
82,1.42183545240070894817686675475986
83,1.42427855673103010086294702818921
84,1.42669234658041113666140237589691
85,1.42907751749632325393564585426149
86,1.43143474055051708197857774289876
87,1.43376466347451123370731659290019
88,1.43606791172996778722125824608303
89,1.43834508951838390093629698260637
90,1.44059678073418555027876680636124
91,1.44282354986498792187198198719782
92,1.44502594284249870360913356990125
93,1.44720448784727825395067136357016
94,1.44935969607032770504620991287046
95,1.45149206243425490025198679542585
96,1.45360206627656624449846970717566
97,1.45569017199744820385312257641806
98,1.45775682967422931632861019880442
99,1.45980247564456010379762276973111
100,1.46182753306020193445941942421263
101,1.46383241241318658114870446402209
102,1.46581751203598264605638455718351
103,1.46778321857719710881887001051847
104,1.46972990745423299022217686305569
105,1.47165794328423105001016649116693
106,1.47356768029453267304257245204538
107,1.47545946271382301609304432093241
108,1.47733362514503424802302957276456
109,1.47919049292102012253319323300579
110,1.48103038244395070256897628747496
111,1.48285360150931019425839506698785
112,1.48466044961533141462670277152802
113,1.48645121825864488153845259210498
114,1.48822619121687175656117308627731
115,1.48998564481884942294228891293968
116,1.49172984820313014924269811958733
117,1.49345906356536157616365162325155
118,1.49517354639511673299801987637187
119,1.49687354570270757642071864183811
120,1.49855930423649020209809728291367
121,1.50023105869113161235186974820211
122,1.50188903990728900998036317120511
123,1.50353347306312039540787309569247
124,1.50516457785802756452425825406042
125,1.50678256868900303831379363069552
126,1.50838765481993725807474667044323
127,1.50998004054422180214473022105939
128,1.51155992534096179285703162687052
129,1.51312750402509858921496257246884
130,1.51468296689172547890405494853719
131,1.51622649985486367914382155291324
132,1.51775828458095097868001844592347
133,1.51927849861728357163437701841462
134,1.52078731551564035796994401900280
135,1.52228490495130087698764756522099
136,1.52377143283766435273936027651341
137,1.52524706143666402229915837170140
138,1.52671194946515730584384487162638
139,1.52816625219747027158821505018907
140,1.52961012156425940265227789963489
141,1.53104370624784911544766305957725
142,1.53246715177419540590338704701741
143,1.53388060060161734968186871504483
144,1.53528419220643100289907150083349
145,1.53667806316561606210358216929426
146,1.53806234723663777351848514912495
147,1.53943717543453837858395392842930
148,1.54080267610641342480502167465642
149,1.54215897500337474283485039595353
150,1.54350619535010373064651588373876
151,1.54484445791209085902261932094649
152,1.54617388106065169750737840718379
153,1.54749458083580841048913174387404
154,1.54880667100712062262926358688870
155,1.55011026313254388960373884100852
156,1.55140546661539364049339414830022
157,1.55269238875948563839907850934565
158,1.55397113482252477735527440184481
159,1.5552418080678058883478052644728
160,1.5565045098142928919455768438860
161,1.5577593394851347936374858409085
162,1.5590063946546779829460703056714
163,1.5602457710940296895874169114228
164,1.5614775628152272332424832362318
165,1.5627018621140616671276607775216
166,1.5639187596116063309234669604265
167,1.5651283442944975453510142910511
168,1.5663307035540101372798945179053
169,1.5675259232239728574282382747972
170,1.5687140876175634337407986437115
171,1.5698952795630234548759524305886
172,1.5710695804383309504296866369976
173,1.5722370702048660701974126247711
174,1.5733978274401057059576835738771
175,1.5745519293693810406809232814281
176,1.5756994518967277314859982977743
177,1.5768404696348619868521579463897
178,1.5779750559343116924525567167649
179,1.5791032829117290305251157032537
180,1.5802252214774155391496682913465
181,1.5813409413620822599873964900387
182,1.5824505111428726698378623359945
183,1.5835539982686714452574506431566
184,1.5846514690847233017449903260582
185,1.5857429888565837155876316477331
186,1.5868286217934224969559851258751
187,1.5879084310707040147153756558074
188,1.5889824788522595092371221534773
189,1.5900508263117752242667401489994
190,1.5911135336537120088929549125014
191,1.5921706601336756121351372749605
192,1.5932222640782540523171855121139
193,1.5942684029043403650403596241940
194,1.5953091331379540705015607680418
195,1.5963445104325792924790461212251
196,1.5973745895870332208482898328645
197,1.5983994245628792929112147525247
198,1.5994190685013992554798740101954
199,1.6004335737401369415300912021834
200,1.6014429918290277015860077567199
201,1.6024473735461244662142485179605
202,1.6034467689129338157390744541131
203,1.6044412272093727118604590948916
204,1.6054307969883575060365772923911
205,1.6064155260900351899426776316235
206,1.6073954616556699067032644931404
207,1.6083706501411905935229677281330
208,1.6093411373304139771207198586685
209,1.6103069683479486647948103613704
210,1.6112681876717918267177484178124
211,1.6122248391456258284173643161954
212,1.6131769659908250405661032999836
213,1.6141246108181772039665162659790
214,1.6150678156393343254163184520749
215,1.6160066218779923106776897195664
216,1.6169410703808132890013128113568
217,1.6178712014280945882404014535429
218,1.6187970547441933329976334918643
219,1.6197186695077099387337528742520
220,1.6206360843614430099583957811069
221,1.6215493374221135447855997974132
222,1.6224584662898756432119648905167
223,1.6233635080576072799411752779827
224,1.6242644993199962010452750325417
225,1.6251614761824235009975534813394
226,1.6260544742696484180099341442975
227,1.6269435287343029905134057456426
228,1.6278286742651983849728006971841
229,1.6287099450954500471712179174167
230,1.6295873750104263631923120818153
231,1.6304609973555226193548854215662
232,1.6313308450437706700042442933837
233,1.6321969505632792986484229819549
234,1.6330593459845214184886443668176
235,1.6339180629674612834273420139125
236,1.6347731327685314083051933534273
237,1.6356245862474628184770193955883
238,1.6364724538739703597201361098377
239,1.6373167657342985040372900139457
240,1.6381575515376298047527647206165
241,1.6389948406223602822313808782296
242,1.6398286619622445961512408660223
243,1.6406590441724150350836600970320
244,1.6414860155152760115962590639072
245,1.6423096039062784359695921645427
246,1.6431298369195764870742431768237
247,1.6439467417935681621729166657998
248,1.6447603454363271861805727351379
249,1.6455706744309212488768910817382
250,1.6463777550406269541702771457523
251,1.6471816132140393808189378039355
252,1.6479822745900790525023873151717
253,1.6487797645029013888400584259323
254,1.6495741079867082936073864784366
255,1.6503653297804657595722737188014
256,1.6511534543325275747120464989871
257,1.6519385058051715205485920452830
258,1.6527205080790445066537427522200
259,1.6534994847575234441686989337877
260,1.6542754591709922440351961176254
261,1.6550484543810352529887288017115
262,1.6558184931845518520391932920718
263,1.6565855981177910673188347238763
264,1.6573497914603116434486689945311
265,1.6581110952388661039488092739784
266,1.6588695312312109657229748309016
267,1.6596251209698463201470474339343
268,1.6603778857456848137585244193696
269,1.6611278466116542977437118115162
270,1.6618750243862298696445297035430
271,1.6626194396569045905189494914306
272,1.6633611127835928563967095328824
273,1.6641000639019738664218821754379
274,1.6648363129267723959771718537377
275,1.6655698795549807496464021281979
276,1.6663007832690201716445121935637
277,1.6670290433398491970058908048858
278,1.6677546788300106974553770974220
279,1.6684777085966291244073187867501
280,1.6691981512943500419389295932418
281,1.6699160253782298385416667196207
282,1.6706313491065731138996457503873
283,1.6713441405437209531217079876807
284,1.6720544175627872449430189705852
285,1.6727621978483498511371925420363
286,1.6734674988990926518647910364304
287,1.6741703380304035262296856972008
288,1.6748707323769246697996400264680
289,1.6755686988950598971360334458917
290,1.6762642543654396618401925626087
291,1.6769574153953416350369865976218
292,1.6776481984210697271826975765827
293,1.6783366197102954589520991830250
294,1.6790226953643567180996777254294
295,1.6797064413205159894201129563900
296,1.6803878733541856433483600798815
297,1.6810670070811102149044162512960
298,1.6817438579595149897142703550820
299,1.6824184412922176999426022384772
300,1.6830907722287050807206001786952
301,1.6837608657671746984841534977204
302,1.6844287367565441441330752363410
303,1.6850943998984247641171825390435
304,1.6857578697490635069566277294391
305,1.6864191607212543137000500086161
306,1.6870782870862183155178345144712
307,1.6877352629754500203814186955820
308,1.6883901023825369672544288766900
309,1.6890428191649489370583782651363
310,1.6896934270457970555569741287297
311,1.6903419396155663830589163030398
312,1.6909883703338195040692732340841
313,1.6916327325308725096354252454014
314,1.6922750394094451766586589631815
315,1.6929153040462846638118032966428
316,1.6935535393937640997022559562524
317,1.6941897582814536018829187392363
318,1.6948239734176690779530809998455
319,1.6954561973909959503090849987976
320,1.6960864426717878057999933064109
321,1.6967147216136438892203729444926
322,1.6973410464548615550683671710511
323,1.6979654293198671916054062445664
324,1.6985878822206245943551316315084
325,1.6992084170580225510192674608888
326,1.6998270456232398750348397440743
327,1.7004437795990907085253191062055
328,1.7010586305613472838379024525663
329,1.7016716099800451185225484888156
330,1.7022827292207670754162747134608
331,1.7028919995459077264063779198601
332,1.7034994321159190810933619971199
333,1.7041050379905380588889272882745
334,1.7047088281299938885515870689710
335,1.7053108133961997500715761132247
336,1.7059110045539247169364144433351
337,1.7065094122719488710019921351843
338,1.7071060471242026488003117725461
339,1.7077009195908864837703901150788
340,1.7082940400595768357315102076200
341,1.7088854188263143211555316800241
342,1.7094750660966764413668828838895
343,1.7100629919868345464386034412939
344,1.7106492065245950284701848052152
345,1.7112337196504265635608834991665
346,1.7118165412184708772522300244609
347,1.7123976809975405987771684888965
348,1.7129771486721010158193848967780
349,1.7135549538432392746859572448851
350,1.7141311060296185682131179812774
351,1.7147056146684193989883529464145
352,1.7152784891162676002330704942193
353,1.7158497386501483987033692231823
354,1.7164193724683079340653961915896
355,1.7169873996911426000083191179526
356,1.7175538293620744168640078017900
357,1.7181186704484156747581605685286
358,1.7186819318422220912803711484624
359,1.7192436223611302287987266772573
360,1.7198037507491881093251614770474
361,1.7203623256776707717878157126668
362,1.7209193557458872532978204116265
363,1.7214748494819735900118038133368
364,1.7220288153436768615715740818353
365,1.7225812617191285154770895415854
366,1.7231321969276058490505806805555
367,1.7236816292202845409915214010638
368,1.7242295667809790212404679668115
369,1.7247760177268753116870475430402
370,1.7253209901092520508869383976253
371,1.7258644919141925560872710526285
372,1.7264065310632868790299957873687
373,1.7269471154143238222391288767599
374,1.7274862527619772242623566152922
375,1.7280239508384772054272368297381
376,1.7285602173142778303184739884108
377,1.7290950597987129761781791943481
378,1.7296284858406435746309859487509
379,1.7301605029290980665269377242234
380,1.7306911184939028266580166382427
381,1.7312203399063054337747723419458
382,1.7317481744795879040639682609430
383,1.7322746294696745627398798316229
384,1.7327997120757295174402257551394
385,1.7333234294407473546723989991979
386,1.7338457886521377179525416230143
387,1.7343667967422995169633390157620
388,1.7348864606891887045180521678836
389,1.7354047874168802960042570198976
390,1.7359217837961218204013271663845
391,1.7364374566448785197989303372349
392,1.7369518127288739057800003419602
393,1.7374648587621231461402529609671
394,1.7379766014074578630271252710747
395,1.7384870472770451993554307728742
396,1.7389962029329008043523339178231
397,1.7395040748873953681241194267115
398,1.7400106696037547133635421292857
399,1.7405159934965520099729971851838
400,1.7410200529321964125452648805227
401,1.7415228542294141696050179252476
402,1.7420244036597229498115626525561
403,1.7425247074479022058460366986974
404,1.7430237717724574690561663554842
405,1.7435216027660760402873235626560
406,1.7440182065160801859177004274785
407,1.7445135890648749558007575880357
408,1.7450077564103881262921181765737
409,1.7455007145065051294212137467054
410,1.7459924692635014826687616842439
411,1.7464830265484669793512464698372
412,1.7469723921857252221842936284849
413,1.7474605719572495790678289852040
414,1.7479475716030719849211472456441
415,1.7484333968216888735130938110110
416,1.7489180532704606689036906845645
417,1.7494015465660076849662072827848
418,1.7498838822845995962092741321485
419,1.7503650659625427583934097846435
420,1.7508451030965603608463544398253
421,1.7513239991441693626440711680509
422,1.7518017595240534942422760648455
423,1.7522783896164301606812999060471
424,1.7527538947634148600713850755840
425,1.7532282802693794967003155237091
426,1.7537015514013081955859185425031
427,1.7541737133891481030843807235455
428,1.7546447714261551872239759921007
429,1.7551147306692389501325111572221
430,1.7555835962392989146450748998276
431,1.7560513732215603887266376971001
432,1.7565180666659066572038667966642
433,1.7569836815872029386825062714017
434,1.7574482229656232055670233960402
435,1.7579116957469676908353485134241
436,1.7583741048429789825376736095847
437,1.7588354551316548673667328801186
438,1.7592957514575569053413881647561
439,1.7597549986321154168853805491832
440,1.7602132014339319534910247044927
441,1.7606703646090764117973878932352
442,1.7611264928713823547047811321659
443,1.7615815909027401871969799457938
444,1.7620356633533828062163258741542
445,1.7624887148421730552260479381721
446,1.7629407499568840077822016411445
447,1.7633917732544792492582394078546
448,1.7638417892613863748963040502315
449,1.7642908024737715446630452247603
450,1.7647388173578072473232800912769
451,1.7651858383499407767978497089129
452,1.7656318698571562621252142867636
453,1.7660769162572359940694833553955
454,1.7665209818990174372948995767228
455,1.7669640711026495519486893567986
456,1.7674061881598437216216223492343
457,1.7678473373341239833622271585065
458,1.7682875228610729556103751198643
459,1.7687267489485759779436932132260
460,1.7691650197770631049473720090431
461,1.7696023394997468039007432774928
462,1.7700387122428585692975127394975
463,1.7704741421058830579385958762013
464,1.7709086331617879054690499992965
465,1.7713421894572531930615719323159
466,1.7717748150128976949087618474644
467,1.7722065138235011870064562000848
468,1.7726372898582278328334076248598
469,1.7730671470608431225892805045148
470,1.7734960893499318904959724482076
471,1.7739241206191116772325723277217
472,1.7743512447372457350798962379553
473,1.7747774655486510266393963793791
474,1.7752027868733087210832240586063
475,1.7756272125070661106518541501103
476,1.7760507462218424611670659398581
477,1.7764733917658291295165233119533
478,1.7768951528636886240600128286522
479,1.7773160332167514972999277124757
480,1.7777360365032114653569652689156
481,1.7781551663783173050836596211707
482,1.7785734264745650975603422650931
483,1.7789908204018861979272815989908
484,1.7794073517478337512636710371476
485,1.7798230240777692313447276323389
486,1.7802378409350435870238152514238
487,1.7806518058411798449756766030457
488,1.7810649222960517652391404325514
489,1.7814771937780617776104567578205
490,1.7818886237443160618822381413076
491,1.7822992156307989060777418753239
492,1.7827089728525449307325393713486
493,1.7831178988038091540948605365834
494,1.7835259968582359921448797423053
495,1.7839332703690253857867874147445
496,1.7843397226690992994901100850868
497,1.7847453570712642767546702059157
498,1.7851501768683739975027340494729
499,1.7855541853334893345680702454383
500,1.785957385720038039599128369369
501,1.786359781261969804230285866633
502,1.786761375173914151513658189713
503,1.787162170651332625545626588102
504,1.787562170870673122930130394718
505,1.787961378989519213344330201355
506,1.788359798146740179090793982328
507,1.788757431462639621456009483479
508,1.789154282039102273622667615778
509,1.789550352959737250811604126854
510,1.789945647290023790670410534020
511,1.790340168077452714764703385329
512,1.790733918351667511143632784312
513,1.791126901124603653493139012688
514,1.791519119390626833115097985626
515,1.791910576126670477805502782132
516,1.792301274292370767796264008918
517,1.792691216830200223326679493971
518,1.793080406665601649058150423487
519,1.793468846707119217103813894888
520,1.793856539846529545504829187276
521,1.794243488958969567210152733799
522,1.794629696903065465589575542427
523,1.795015166521059113465948278347
