Eigenstate,Potential Energy
1,0.500000000059057425123923223276052101
2,0.64623093803661103939038613089833539
3,0.73633761083734158816883234490338881
4,0.79966528017283171839061348128360140
5,0.8480465793712601672604247091708973
6,0.8870660031923366581310940961195496
7,0.9197208330766023667871458219603097
8,0.9477838554022640818362610069104882
9,0.9723835691763464904484692218361151
10,0.9942802285479051698662849784897346
11,1.0140094036583205404798987591579734
12,1.0319621898124829219986441474124319
13,1.0484327170764134170154574819232256
14,1.0636476831334421784301578740259891
15,1.0777854690984033931990586906921916
16,1.090988944388086758738439097416946
17,1.103374300182746088866423889180972
18,1.115037300432301728883473104400695
19,1.126057804960320274989230568341376
20,1.136503107097952545850431055527377
21,1.146430439765631892885723097711862
22,1.155888886631815184698256063915715
23,1.164920860049508111829416227220309
24,1.173563258456687848612705884698002
25,1.181848383172229839217830936295078
26,1.189804672203495861909726421959142
27,1.197457293208910117179128116190590
28,1.204828626856999271371599551825065
29,1.211938664028344562530850545136454
30,1.218805334657406503474326025287990
31,1.225444781865244215327551349012352
32,1.231871591956251838784289865904232
33,1.238098988542386665334076661805157
34,1.244138997307817363890787195303249
35,1.250002586587725612081731990857310
36,1.255699787901515562560711462389810
37,1.261239799776601025937190981131332
38,1.266631077568521508583107651008089
39,1.271881411485289593918367496976165
40,1.276997994628051372122512265229018
41,1.281987482543391349415780978135788
42,1.286856045527620666483260615530160
43,1.291609414716901110649594980829441
44,1.296252922828963390868649369525080
45,1.300791540284608575565177156910664
46,1.305229907324045310748228118688502
47,1.309572362639638823465650453855017
48,1.313822968969061351406083083917973
49,1.317985536028171095546243581538512
50,1.32206364110882407907836903089574
51,1.32606064762135633337234248446762
52,1.32997972182312861742102258481080
53,1.33382384794207575866596075321726
54,1.33759584187664157164007637844620
55,1.34129836363000481834829645052986
56,1.34493392861642710417884115750419
57,1.34850491796035463801619916295652
58,1.35201358789410859893381904375525
59,1.35546207834724490456726389576995
60,1.35885242080963966856495316618171
61,1.36218654554079240700757405167945
62,1.36546628818953804857268773432303
63,1.36869339588111691419941443637307
64,1.37186953282223935208513032683710
65,1.37499628546924687387271075139249
66,1.37807516729962429883190222036025
67,1.38110762322285512151214880876819
68,1.38409503366285615753511031393336
69,1.38703871834091485146803513167895
70,1.38993993978512436245434598671021
71,1.39279990658971283954688607958412
72,1.39561977644536505630855518596735
73,1.39840065895958156784180933985791
74,1.40114361828430170485507105329711
75,1.40384967556638561827121901099085
76,1.40651981123510103112748989614683
77,1.40915496713945795609821646466474
78,1.41175604854706883879123154996647
79,1.41432392601516476697645654048912
80,1.41685943714346026026049992588806
81,1.41936338821770981324457956613028
82,1.42183655575203791464926135434898
83,1.42427968793743553109977927289257
84,1.42669350600319175254958535558383
85,1.42907870549747002014593004719034
86,1.43143595749272249195179706458863
87,1.43376590972117863113888966769205
88,1.43606918764522072353024898743440
89,1.43834639546707552920978220392684
90,1.44059811708190805618657015020989
91,1.44282491697808199205117365596119
92,1.44502734108806303202191215289473
93,1.44720591759317908672352662459475
94,1.44936115768520842430244749932046
95,1.45149355628754564745401329546381
96,1.45360359273849358382028554251824
97,1.45569173143904482610792425575938
98,1.45775842246734378398036242535088
99,1.45980410216186663758996073708451
100,1.46182919367521024219930003301738
101,1.46383410750025172918660910337394
102,1.46581924197031497400916475411354
103,1.46778498373487218808547033888725
104,1.46973170821220162684722168041469
105,1.47165978002032933245434842782039
106,1.47356955338749206542350459807386
107,1.47546137254328049746445306942764
108,1.47733557209154249826489158305680
109,1.47919247736605775542979329675391
110,1.48103240476993254665656549290366
111,1.48285566209959762202856990355195
112,1.48466254885424272067648669916899
113,1.48645335653146571026272340480287
114,1.48822836890986557998778345732479
115,1.48998786231926806931513919008587
116,1.49173210589922438296281477659251
117,1.49346136184639172970336649041379
118,1.49517588565136339140820262754693
119,1.49687592632548231505609904427183
120,1.49856172661814637819098578725520
121,1.50023352322507521106944969879259
122,1.50189154698798954560620105169499
123,1.50353602308612186829347803109707
124,1.50516717121995947446184172138728
125,1.50678520578759145498690997350862
126,1.50839033605401594924891226290609
127,1.50998276631374342026563772008653
128,1.51156269604700912072969305279845
129,1.51313032006989584544276045384263
130,1.51468582867864968377240538448836
131,1.51622940778845608163890401828774
132,1.51776123906692854533944352278789
133,1.51928150006255053793174098039861
134,1.52079036432829984294218456198586
135,1.52228800154066656181973228550507
136,1.52377457761427222402718995301534
137,1.52525025481228418071780910691556
138,1.52671519185280584095474062809411
139,1.52816954401142120352529558102072
140,1.52961346322005669143361805170271
141,1.53104709816231873866566329999955
142,1.53247059436545750555352525140964
143,1.53388409428909844889653333317040
144,1.53528773741087629336015082309657
145,1.53668166030910176291420337886670
146,1.53806599674258356232148197988866
147,1.53944087772771989572186927960135
148,1.54080643161297485132343124513258
149,1.54216278415084145313848242481559
150,1.54351005856739502062458751275813
151,1.54484837562953275046798953591764
152,1.54617785370998981966106959044418
153,1.54749860885022095954997208634639
154,1.54881075482123140007589499544098
155,1.55011440318243542018432555418214
156,1.55140966333862037074652197491054
157,1.55269664259508721657707617278067
158,1.55397544621103941562977663622421
159,1.5552461774512838081854865465137
160,1.5565089376363098535505658384967
161,1.5577638261908057103654615421506
162,1.5590109406906706216037980307465
163,1.5602503769085784575399077954693
164,1.5614822288581470532593845809667
165,1.5627065888367619409091858058188
166,1.5639235474671049922552428658651
167,1.5651331937374352038464761763161
168,1.5663356150406643136785446560011
169,1.5675308972122723114269708781054
170,1.5687191245671025853457614277280
171,1.5699003799350769002715847919871
172,1.5710747446958680733717885017168
173,1.5722422988125657499468455153016
174,1.5734031208643711227815736255021
175,1.5745572880783545799584429288924
176,1.5757048763603059874661008622038
177,1.5768459603247108671212752352754
178,1.5779806133238816241808000403960
179,1.5791089074762702695703485661259
180,1.5802309136939935831098636605839
181,1.5813467017095933663025185112627
182,1.5824563401020594800539213819214
183,1.5835598963221387165766837138716
184,1.5846574367169537469975447601238
185,1.5857490265539539527721394372301
186,1.5868347300442191095075293236870
187,1.5879146103651397236721467797578
188,1.5889887296824894584884661911346
189,1.5900571491719133800781390455179
190,1.5911199290398476749155305590101
191,1.5921771285438900611200612447425
192,1.5932288060126372757681995195664
193,1.5942750188650079420503459516552
194,1.5953158236290641570324174729490
195,1.5963512759603497323572863387691
196,1.5973814306597587797622530697178
197,1.5984063416909490167095233463846
198,1.5994260621973139540843632354987
199,1.6004406445185267997907548671069
200,1.6014501402066700184192227617322
201,1.6024546000419615233805065945549
202,1.6034540740480908776305742092582
203,1.6044486115071761576836442477876
204,1.6054382609743530957900746029498
205,1.6064230702920064656056972409567
206,1.6074030866036567300652092666609
207,1.6083783563675078221007717067832
208,1.6093489253696702796253589189283
209,1.6103148387370654776255026800338
210,1.6112761409500224529777130312651
211,1.6122328758545746809615612204537
212,1.6131850866744670306085006361554
213,1.6141328160228772767906057539492
214,1.6150761059138671447500695608542
215,1.6160149977735620933113202525521
216,1.6169495324510737912438256360151
217,1.6178797502291692458285625809304
218,1.6188056908346955560888749344644
219,1.6197273934487635636333977600863
220,1.6206448967167029092492042049300
221,1.6215582387577863975471060793779
222,1.6224674571747408670354914291289
223,1.6233725890630381264663117593745
224,1.6242736710199810167624174308453
225,1.6251707391535871550815675335364
226,1.6260638290912738989696618373735
227,1.6269529759883531734618076229552
228,1.6278382145363379713439262933159
229,1.6287195789710676787302373627081
230,1.6295971030806569122066812496120
231,1.6304708202132696568156707734336
232,1.6313407632847291138086336007106
233,1.6322069647859582436763780988936
234,1.6330694567902671505293455932631
235,1.6339282709604804789331341867789
236,1.6347834385559145219743870778969
237,1.6356349904392076606895775664956
238,1.6364829570830058658743587861091
239,1.6373273685765086978591481575179
240,1.6381682546318779576743691297274
241,1.6390056445905132709592372370596
242,1.6398395674291974605695416683239
243,1.6406700517661157386642505995486
244,1.6414971258667504065115060789210
245,1.6423208176496554351306965117358
246,1.6431411546921134453447433087825
247,1.6439581642356764690320580089119
248,1.6447718731915980721404864316846
249,1.6455823081461518079830025939314
250,1.6463894953658463849439510529219
251,1.6471934608025354480284361257149
252,1.6479942300984247721774499689332
253,1.6487918285909819389742965811557
254,1.6495862813177481530224517552266
255,1.6503776130210560774470199532418
256,1.6511658481526537733113044030397
257,1.6519510108782411337158297085995
258,1.6527331250819152566636899925866
259,1.6535122143705315595673908601204
260,1.6542883020779810211272839718508
261,1.6550614112693838636641860314737
262,1.6558315647452044006647021735254
263,1.6565987850452858994525838328361
264,1.6573630944528109091711854887419
265,1.6581245149981855786371035205340
266,1.6588830684628501311299407644993
267,1.6596387763830187086838737552685
268,1.6603916600533486189135748876243
269,1.6611417405305432536078811312416
270,1.6618890386368844025502302852000
271,1.6626335749637032458371345346475
272,1.6633753698747840035750674902029
273,1.6641144435097076853850022847341
274,1.6648508157871331480500202997947
275,1.6655845064080193362007780752925
276,1.6663155348587869837096287478026
277,1.6670439204144272591251272634117
278,1.6677696821415491091118357082082
279,1.6684928389013768023842875255211
280,1.6692134093526897670232717842423
281,1.6699314119547126100222127746301
282,1.6706468649699528153561529727417
283,1.6713597864669893330449909430784
284,1.6720701943232092157722259719962
285,1.6727781062274991103466464544047
286,1.6734835396828876287786913552844
287,1.6741865120091436582911565466114
288,1.6748870403453270120689154935760
289,1.6755851416522960688405179140015
290,1.6762808327151731338496120351780
291,1.6769741301457653621869105888496
292,1.6776650503849441294211908550440
293,1.6783536097049867553352321576394
294,1.6790398242118756177155605695972
295,1.6797237098475567433732426077387
296,1.6804052823921654619918289596753
297,1.6810845574662090545611985475398
298,1.6817615505327157131857451088284
299,1.6824362768993466151590071608266
300,1.6831087517204728619453429044753
301,1.6837789899992176945434880385150
302,1.6844470065894660782007020464284
303,1.6851128161978388296449085042604
304,1.6857764333856348644027992047293
305,1.6864378725707429927704260102493
306,1.6870971480295225276952909925599
307,1.6877542738986498865870167647551
308,1.6884092641769386655460497657085
309,1.6890621327271292753398032339028
310,1.6897128932776484743377772989652
311,1.6903615594243423933729264609816
312,1.6910081446321805657300925119529
313,1.6916526622369323550764471127393
314,1.6922951254468175856769992302588
315,1.6929355473441306946089912687118
316,1.6935739408868397816870845087367
317,1.6942103189101580957772990602351
318,1.6948446941280933088183119447466
319,1.6954770791349717191866512096963
320,1.6961074864069373857395182773408
321,1.6967359283034301115474428467933
322,1.6973624170686383918263015522021
323,1.6979869648329308401864918154477
324,1.6986095836142650704212349359129
325,1.6992302853195757958967151721402
326,1.6998490817461403838544432937248
327,1.7004659845829246854663749011829
328,1.7010810054119063309243369449322
329,1.7016941557093804645095907371333
330,1.7023054468472443513985472998885
331,1.7029148900942622948714863145288
332,1.7035224966173119252404911805580
333,1.7041282774826122391282706449836
334,1.7047322436569315731985443614973
335,1.7053344060087798273502238135326
336,1.7059347753095809955069208809745
337,1.7065333622348288763311089277180
338,1.7071301773652270227981134431516
339,1.7077252311878089952224242726927
340,1.7083185340970450091650089181778
341,1.7089100963959306918875800243046
342,1.7094999282970604445948741008058
343,1.7100880399236850483461348020621
344,1.7106744413107535074381296667590
345,1.7112591424059409496905737027625
346,1.7118421530706600585269300832894
347,1.7124234830810596023101186716945
348,1.7130031421290068727596759192189
349,1.7135811398230575774790450591618
350,1.7141574856894107290419758759054
351,1.7147321891728506183487862424017
352,1.7153052596376755547305070855770
353,1.7158767063686126572925881586193
354,1.7164465385717201120906609208884
355,1.7170147653752772605408238062195
356,1.7175813958306607289745644735455
357,1.7181464389132098385070408154972
358,1.7187099035230805393520425826567
359,1.7192717984860836148580949521678
360,1.7198321325545160933237049072117
361,1.7203909144079776126005489103390
362,1.7209481526541782192297915364671
363,1.7215038558297321978714068814391
364,1.7220580324009429551701149975059
365,1.7226106907645771945785914550837
366,1.7231618392486272599643340424323
367,1.7237114861130645401688617301644
368,1.7242596395505807234123908415970
369,1.7248063076873215342552279561367
370,1.7253514985836086664603821345274
371,1.7258952202346527652395491503674
372,1.7264374805712564155387115617474
373,1.7269782874605071032585874134241
374,1.7275176487064644580723565180833
375,1.7280555720508324695975853455055
376,1.7285920651736281333289988585106
377,1.7291271356938383157364446455101
378,1.7296607911700680061375370577976
379,1.7301930391011817953473433212898
380,1.7307238869269353380773070361169
381,1.7312533420285996747256486042329
382,1.7317814117295755309438373608190
383,1.7323081032960022698578521382773
384,1.7328334239373564608655763417276
385,1.7333573808070436864900156745754
386,1.7338799810029842461690852253696
387,1.7344012315681885065521737394542
388,1.7349211394913258353387410304588
389,1.7354397117072877935821799722245
390,1.7359569550977427758126341420884
391,1.7364728764916824151657526401728
392,1.7369874826659633621466350514723
393,1.7375007803458419107749515068007
394,1.7380127762055000534667041175148
395,1.7385234768685658217937282339939
396,1.7390328889086275642603330614900
397,1.7395410188497417912788068439544
398,1.7400478731669345957645692025118
399,1.7405534582866952154240290875222
400,1.7410577805874660369900419041096
401,1.7415608464001250916199552449249
402,1.7420626620084617869781991886644
403,1.7425632336496486970544302951961
404,1.7430625675147073031192196284428
405,1.7435606697489651515903635247451
406,1.7440575464525105381695578161965
407,1.7445532036806418353056116910798
408,1.7450476474443089665210109579101
409,1.7455408837105498890275385836702
410,1.7460329184029245994657178035205
411,1.7465237574019409231472338453528
412,1.7470134065454756697625145797626
413,1.7475018716291922349890698836009
414,1.7479891584069510722333179577627
415,1.7484752725912173188603743589829
416,1.7489602198534620069472803710406
417,1.7494440058245597074548765470775
418,1.7499266360951797714734943414445
419,1.7504081162161754474817923044706
420,1.7508884516989658569742100227673
421,1.7513676480159147810847699733575
422,1.7518457106007055402656928272515
423,1.7523226448487098036203225815950
424,1.7527984561173539420889629152895
425,1.7532731497264793053299651725477
426,1.7537467309587000296248424574336
427,1.7542192050597558619411266553847
428,1.7546905772388600143518342665533
429,1.7551608526690459617199690743585
430,1.7556300364875060452876125258433
431,1.7560981337959293863666025578815
432,1.7565651496608362601997217104493
433,1.7570310891139042684555857654906
434,1.7574959571522974088722034159494
435,1.7579597587389858663119722397504
436,1.7584224988030644268211334196706
437,1.7588841822400676766761034327864
438,1.7593448139122809691088970515515
439,1.7598043986490478406565344128223
440,1.7602629412470749489972915207113
441,1.7607204464707316927996848675838
442,1.7611769190523480779055026098243
443,1.7616323636925104782415616489570
444,1.7620867850603499115396813502812
445,1.7625401877938321612484339907139
446,1.7629925765000407697276210090192
447,1.7634439557554600726471476293077
448,1.7638943301062514935703968919287
449,1.7643437040685309400084316673822
450,1.7647920821286394541977840290679
451,1.7652394687434146225167895340335
452,1.7656858683404555857323043012027
453,1.7661312853183873940053628823751
454,1.7665757240471210964862446234482
455,1.7670191888681131902663252479571
456,1.7674616840946197266054280984847
457,1.7679032140119497710784709407681
458,1.7683437828777146144967349246355
459,1.7687833949220752495076062387651
460,1.7692220543479877562176961462606
461,1.7696597653314444475897026058543
462,1.7700965320217139887072600978098
463,1.7705323585415790947527518353415
464,1.7709672489875699696962340473997
465,1.7714012074301974555507094550729
466,1.7718342379141830240364228906774
467,1.7722663444586848923419905557708
468,1.7726975310575252798166219148616
469,1.7731278016794112835220849091995
470,1.7735571602681568984316099956885
471,1.7739856107429004506697716511049
472,1.7744131569983217427125697987804
473,1.7748398029048542627954823323295
474,1.7752655523088999638930750112108
475,1.7756904090330355364326757160818
476,1.7761143768762226899843020854780
477,1.7765374596140127783906634277091
478,1.7769596609987504458386261921263
479,1.7773809847597751847882492139021
480,1.7778014346036212019239252675104
481,1.7782210142142141446124331643295
482,1.7786397272530682583082105072418
483,1.7790575773594793565936320683780
484,1.7794745681507164253400677103156
485,1.7798907032222133396371681085761
486,1.7803059861477552800987758741619
487,1.7807204204796666991846874035286
488,1.7811340097489954359279869458672
489,1.7815467574656962091136654267742
490,1.7819586671188113539498620724299
491,1.7823697421766509384745266950290
492,1.7827799860869708498932397359427
493,1.7831894022771488279168776625656
494,1.7835979941543595412486653153507
495,1.7840057651057469018789008196704
496,1.7844127184985968638253642757497
497,1.7848188576805063941119267206362
498,1.7852241859795525635682986039235
499,1.7856287067044592571613334155939
500,1.786032423144763636773416430131
501,1.786435338570978104955690361253
502,1.786837456234755227378045427484
503,1.787238779369047084714509413394
504,1.787639311188266900476130907808
505,1.788039054888445795007295481751
506,1.788438013647390398543575376676
507,1.788836190624839174249753693707
508,1.789233588962617094160312445401
509,1.789630211784786901953864069887
510,1.790026062197803018917006301827
511,1.790421143290661327380092137017
512,1.790815458135048735107132330951
513,1.791209009785491139761560426991
514,1.791601801279500473379978021483
515,1.791993835637721204721112932438
516,1.792385115864074513552257052297
517,1.792775644945901215426136599405
518,1.793165425854105226270817114059
519,1.793554461543294352765917315232
520,1.793942754951921269660087590466
521,1.794330309002421483519748076009
522,1.794717126601352563493748602420
523,1.795103210639531080750098140004
