Eigenstate,Potential Energy
1,0.500000000012789711328578483712299091
2,0.64623093773459918954257464438703668
3,0.73633760995020466160800364626124101
4,0.79966527832502255378365750716499445
5,0.8480465761704671978451865598926007
6,0.8870659982393764643112227870932808
7,0.9197208259690642931321844010325957
8,0.9477838457360298912773221241202544
9,0.9723835565462967276329168770991601
10,0.9942802125482774161618259275500681
11,1.0140093838829037948868005628995033
12,1.0319621658547284737347440510282161
13,1.0484326885295002552715862910666846
14,1.0636476495903162376003968997833432
15,1.0777854301518010129347972074697357
16,1.090988899630548227894478805863047
17,1.103374249206622738480563111546515
18,1.115037242829758698286536623722664
19,1.126057740323336296612047742535058
20,1.136503035018317626185253766655095
21,1.146430359834943476709128331263340
22,1.155888798441473204506654248743436
23,1.164920763190709203393357949167428
24,1.173563152520418932631496198380905
25,1.181848267749261213845541390265572
26,1.189804546884373912556113867367620
27,1.197457157583949722873596262635076
28,1.204828480516275967517634605981195
29,1.211938506561686505712132652072016
30,1.218805165654386273526009176271355
31,1.225444600915170482087254877694170
32,1.231871398648160915050112130974955
33,1.238098782465033963066225266192363
34,1.244138778049668767234619625401981
35,1.250002353736948778101644151130607
36,1.255699541045971158467085101087851
37,1.261239538503833909923505071734017
38,1.266630801465751860064871258401012
39,1.271881120139403997902866969236467
40,1.276997687625593861580647067452833
41,1.281987159470554408830765586705732
42,1.286855705970236199181774832380539
43,1.291609058260431372053266969974488
44,1.296252549058491889417432805069364
45,1.300791148784830942743288160188958
46,1.305229497679260141375478372611589
47,1.309571934433738487192536024989961
48,1.313822521785522776161764175534051
49,1.317985069450046523528559107455178
50,1.32206315471873179573907669393851
51,1.32606014100147136973469516746927
52,1.32997919455517342596747629435858
53,1.33382329960731086294834506137784
54,1.33759527205585618969078125042090
55,1.34129777190350745990709840857182
56,1.34493331456403614169442314254658
57,1.34850428116138885133292541849575
58,1.35201292792737769353167657800875
59,1.35546139479104000318567242307325
60,1.35885171324172377600805874029606
61,1.36218581353839084789945311043638
62,1.36546553132932887780485784947913
63,1.36869261373922129978992175819353
64,1.37186872497421193014777799440184
65,1.37499545149006607537617268490946
66,1.37807430676368264781175385388174
67,1.38110673570394950438354688759254
68,1.38409411873417806313999995849087
69,1.38703777557504058147790892581196
70,1.38993896875400521173829098479393
71,1.39279890686466524610354492950041
72,1.39561874759706072035109690669112
73,1.39839960055803753961551252513480
74,1.40114252989887044075877001423311
75,1.40384855676574500484563432285144
76,1.40651866158724437646614766119739
77,1.40915378621168394822935659471705
78,1.41175483590597147057240889688011
79,1.41432268122662322703708227119200
80,1.41685815977262878952154238350523
81,1.41936207782900752653859790897492
82,1.42183521190913858695834692158871
83,1.42427831020325734792354326956489
84,1.42669209393988702390994687539754
85,1.42907725866641485773030171852524
86,1.43143447545450644889135823677788
87,1.43376439203559430391348153254064
88,1.43606763387125331548677913526125
89,1.43834480516289237517620900193140
90,1.44059648980484810765886706267165
91,1.44282325228464526242600077200746
92,1.44502563853390000134318996292043
93,1.44720417673308006540652611802311
94,1.44935937807309287529453113543905
95,1.45149173747645146628655626966959
96,1.45360173428056633600202735247490
97,1.45568983288552694130522566398963
98,1.45775648336856370642570873869393
99,1.45980212206722793215523823103997
100,1.46182717213318065556613076919221
101,1.46383204405835220554138889768511
102,1.46581713617510862468594683859697
103,1.46778283513195321457548772590120
104,1.46972951634618419658883068555168
105,1.47165754443483640681306533286610
106,1.47356727362514417926685233024345
107,1.47545904814568448973191048065241
108,1.47733320259928019292833264576623
109,1.47919006231867459223519890137884
110,1.48102994370592616103292668268848
111,1.48285315455640637354523290031505
112,1.48465999436823416942515653796397
113,1.48645075463792504053548420201770
114,1.48822571914298397061759711826825
115,1.48998516421213101004017215292097
116,1.49172935898379993617097545431771
117,1.49345856565351873690819857943397
118,1.49517303971073962380221590646693
119,1.49687303016565256748238038913737
120,1.49855877976649050586843970907401
121,1.50023052520779610840197801828489
122,1.50188849733010106640046504980596
123,1.50353292131143668670451503631211
124,1.50516401685107688598029695639100
125,1.50678199834588511677592214666688
126,1.50838707505962155913307441273213
127,1.50997945128554633366876435416542
128,1.51155932650263190485218087965568
129,1.51312689552568576996352784062955
130,1.51468234864966614735444699391692
131,1.51622587178845797351156550600649
132,1.51775764660836154122387238102718
133,1.51927785065653432957077705851838
134,1.52078665748461530048867275608939
135,1.52228423676774282833149289230279
136,1.52377075441917374131034792770784
137,1.52524637270069764575365989913449
138,1.52671125032902709213872117362874
139,1.52816554257834203593992511218824
140,1.52960940137915160037065297344815
141,1.53104297541363159060588772205368
142,1.53246641020758813580545770206795
143,1.53387984821918918508862839671138
144,1.53528342892459840397365652635674
145,1.53667728890064183003696597849602
146,1.53806156190462977779553392942134
147,1.53943637895144827985015972915763
148,1.54080186838803539329396336351267
149,1.54215815596534417231606242726406
150,1.54350536490789594785336649825330
151,1.54484361598101982851944206286769
152,1.54617302755586872195492877316468
153,1.54749371567230082626720133044735
154,1.54880579409971049077507778565540
155,1.55010937439588668202445927231073
156,1.55140456596397692141084235160644
157,1.55269147610762774098457379803887
158,1.55397021008437347551218958567814
159,1.5552408711573370635992442836268
160,1.5565035606453091953842970303823
161,1.5577583779712643028949555682409
162,1.5590054207093728541372438453013
163,1.5602447846305648041876574628657
164,1.5614765637466988398527241456585
165,1.5627008503533860180835968547398
166,1.5639177350715183137044521812811
167,1.5651273068875493087439489532602
168,1.5663296531925697122531093835496
169,1.5675248598202227726702237382617
170,1.5687130110834993258182300841957
171,1.5698941898104526729652835144560
172,1.5710684773788711555762243631377
173,1.5722359537499438290555705772291
174,1.5733966975009550789657861832945
175,1.5745507858570421646236574023221
176,1.5756982947220453963973162839898
177,1.5768392987084842072111623135915
178,1.5779738711666882726245651392788
179,1.5791020842131101243998712378116
180,1.5802240087578502039282516830016
181,1.5813397145314170040692099986195
182,1.5824492701107499947586953778615
183,1.5835527429445283816292910587251
184,1.5846501993777899391480193888409
185,1.5857417046758817263644365990853
186,1.5868273230477636538577768838215
187,1.5879071176686887023496320791996
188,1.5889811507022752292657669135079
189,1.5900494833219950943036505251413
190,1.5911121757320932550492554242466
191,1.5921692871879580551603645253670
192,1.5932208760159585872841648531173
193,1.5942669996327674345211906150661
194,1.5953077145641821311818275400007
195,1.5963430764634632751570153086005
196,1.5973731401292029837654934874516
197,1.5983979595227380683604533620507
198,1.5994175877851220896363840926669
199,1.6004320772536691274511469453406
200,1.6014414794780832053239724720868
201,1.6024458452361843459876966728083
202,1.6034452245492446341061680112989
203,1.6044396666969449408384885367454
204,1.6054292202319639251111117231489
205,1.6064139329942092769095000904806
206,1.6073938521247042212857247867589
207,1.6083690240791351537071546018001
208,1.6093394946410746281503840420975
209,1.6103053089348854407675493362036
210,1.6112665114383173047236383366008
211,1.6122231459948034751607623109699
212,1.6131752558254675514110168590837
213,1.6141228835408448343453752488034
214,1.6150660711523332145417435850047
215,1.6160048600833727974963508791141
216,1.6169392911803682203284942641476
217,1.6178694047233576190135845499499
218,1.6187952404364372185869024506630
219,1.6197168374979448192464093031768
220,1.6206342345504146864747267501214
221,1.6215474697103017474622891640149
222,1.6224565805774922911892692012928
223,1.6233616042445947329893912852408
224,1.6242625773060255028857513369106
225,1.6251595358668926142328412128265
226,1.6260525155516804505973854145460
227,1.6269415515127444137159620961017
228,1.6278266784386172427202652945989
229,1.6287079305621341567648120909251
230,1.6295853416683815072848983243102
231,1.6304589451024707291386628178540
232,1.6313287737771479995372889843880
233,1.6321948601802345902509585329259
234,1.6330572363819140591393721358612
235,1.6339159340418594520897330519721
236,1.6347709844162102141130926530857
237,1.6356224183644024297083565621876
238,1.6364702663558541234871186817412
239,1.6373145584765110566208706422176
240,1.6381553244352551725086096399117
241,1.6389925935701799729940812900428
242,1.6398263948547356810630638055707
243,1.6406567569037482207733348301267
244,1.6414837079793137026330237825653
245,1.6423072759965727875170313469048
246,1.6431274885293674476678475390079
247,1.6439443728157815065448666825178
248,1.6447579557635725380545750976469
249,1.6455682639554900936553470487529
250,1.6463753236544906414355009502148
251,1.6471791608088471165695027799004
252,1.6479798010571558810451851643807
253,1.6487772697332461642579561636235
254,1.6495715918709916407218154649669
255,1.6503627922090280243194941782982
256,1.6511508951953767638511245785439
257,1.6519359249919812306186204353078
258,1.6527179054791518420971706390902
259,1.6534968602599269245369870042983
260,1.6542728126643497001923261991532
261,1.6550457857536617122275960892329
262,1.6558158023244174120250915258586
263,1.6565828849125187587737402480065
264,1.6573470557971752814892386851730
265,1.6581083370047881279904130830943
266,1.6588667503127602678613986319964
267,1.6596223172532360619288394654725
268,1.6603750591167702312501640756864
269,1.6611249969559304948092043955123
270,1.6618721515888295993403082415033
271,1.6626165436025960245142325876875
272,1.6633581933567773423266795540841
273,1.6640971209866836730804855185191
274,1.6648333464066684462554824740228
275,1.6655668893133503411218320811263
276,1.6662977691887746847253120486530
277,1.6670260053035217905347471363996
278,1.6677516167197539916751052772000
279,1.6684746222942128711908452530181
280,1.6691950406811587821850453747100
281,1.6699128903352605466373214689740
282,1.6706281895144328291484828699093
283,1.6713409562826243980381047720522
284,1.6720512085125544303099234201833
285,1.6727589638884036677251591412259
286,1.6734642399084564487089071629453
287,1.6741670538876986753602606762225
288,1.6748674229603681173217398355956
289,1.6755653640824617005519084843543
290,1.6762608940342005135079128049112
291,1.6769540294224503716578570055581
292,1.6776447866831008252089854875665
293,1.6783331820834065158058688309044
294,1.6790192317242859190923441015935
295,1.6797029515425795602619231840558
296,1.6803843573132752881357531549241
297,1.6810634646516905394723029278089
298,1.6817402890156209102395917219064
299,1.6824148457074518366844163061037
300,1.6830871498762351367809516509274
301,1.6837572165197308234733229803647
302,1.6844250604864162826213933308454
303,1.6850906964774599887552276499219
304,1.6857541390486633361440698714550
305,1.6864154026123720136827342986509
306,1.6870745014393561867917470188472
307,1.6877314496606566682809362783436
308,1.6883862612694045566013934927776
309,1.6890389501226104307476446425721
310,1.6896895299429234369526786277393
311,1.6903380143203638620752125497031
312,1.6909844167140267068074933757278
313,1.6916287504537576514493309484291
314,1.6922710287418032185179000842447
315,1.6929112646544344518326884478703
316,1.6935494711435454877140036782304
317,1.6941856610382245568961788043339
318,1.6948198470463027683968133918749
319,1.6954520417558778169002331905639
320,1.6960822576368126149097484321932
321,1.6967105070422127685993539466798
322,1.6973368022098790117918435126026
323,1.6979611552637381120990275490519
324,1.6985835782152512263596266383346
325,1.6992040829648014673521563476435
326,1.6998226813030589190054031519929
327,1.7004393849123259208583538802387
328,1.7010542053678598109600486527667
329,1.7016671541391781020641586363921
330,1.7022782425913425227803741125113
331,1.7028874819862233622547494534371
332,1.7034948834837451795991390171363
333,1.7041004581431142566030560851573
334,1.7047042169240259777295961614519
335,1.7053061706878564523059112726445
336,1.7059063301988344369378348310162
337,1.7065047061251964303724112283905
338,1.7071013090403259996382955128304
339,1.7076961494238734019488079357153
340,1.7082892376628615936855301433354
341,1.7088805840527743400179432668511
342,1.7094701987986289222860660795555
343,1.7100580920160330809131051995718
344,1.7106442737322261875326242597968
345,1.7112287538871064656420721307578
346,1.7118115423342417345551040616336
347,1.7123926488418672419889230426098
348,1.7129720830938673969880062408052
349,1.7135498546907449480865223150874
350,1.7141259731505751490273508554236
351,1.7147004479099469996193666150520
352,1.7152732883248912440756672324349
353,1.7158445036717944111889015866450
354,1.7164141031483003107982046634365
355,1.7169820958741993518095415550582
356,1.7175484908923038915366675002636
357,1.7181132971693128553857630304876
358,1.7186765235966648708697894018726
359,1.7192381789913756610762929352779
360,1.7197982720968686354932284635036
361,1.7203568115837904230472790719953
362,1.7209138060508178289405352575105
363,1.7214692640254508108846945488953
364,1.7220231939647964987130385572158
365,1.7225756042563424937238199262576
366,1.7231265032187183254117304538226
367,1.7236758991024479575849052761463
368,1.7242238000906901325838646989052
369,1.7247702142999711861355484855994
370,1.7253151497809060460057314039983
371,1.7258586145189102677471001282167
372,1.7264006164349020640106114860165
373,1.7269411633859942941243465898046
374,1.7274802631661807224078942980540
375,1.7280179235070072367810344714199
376,1.7285541520782394838709861100735
377,1.7290889564885187098177172614613
378,1.7296223442860089741778231744700
379,1.7301543229590375767174408065254
380,1.7306848999367254538477970826779
381,1.7312140825896104201280540840579
382,1.7317418782302603729942067589488
383,1.7322682941138811353640773517355
384,1.7327933374389138998079516084039
385,1.7333170153476258955275213539331
386,1.7338393349266949367840138735034
387,1.7343603032077836020988309601462
388,1.7348799271681069810119036494959
389,1.7353982137309946630693635089523
390,1.7359151697664441581315539704302
391,1.7364308020916660649268622020462
392,1.7369451174716245962120820463116
393,1.7374581226195709340093430274392
394,1.7379698241975679959996343373060
395,1.7384802288170094699280400942351
396,1.7389893430391327668706494493352
397,1.7394971733755255232533269433441
398,1.7400037262886256597382722622557
399,1.7405090081922135627513161113467
400,1.7410130254519006885888686448292
401,1.7415157843856106390054060435986
402,1.7420172912640534534789326462339
403,1.7425175523111959388752724864349
404,1.7430165737047259295814662152803
405,1.7435143615765079435342299300073
406,1.7440109220130363431585237717231
407,1.7445062610558831179166777346658
408,1.7450003847021377916424947778945
409,1.7454932989048423157174377616640
410,1.7459850095734234625474306898039
411,1.7464755225741169793382777028374
412,1.7469648437303870847389980447141
413,1.7474529788233423873925001589104
414,1.7479399335921446502189375515834
415,1.7484257137344146843740488015581
416,1.7489103249066318024953508815352
417,1.7493937727245296797025741198391
418,1.7498760627634857855682058435812
419,1.7503572005589086655496866676743
420,1.7508371916066180537844392879307
421,1.7513160413632217694110767509325
422,1.7517937552464886779986382039998
423,1.7522703386357155542031181742990
424,1.7527457968720914593549979411634
425,1.7532201352590560133165545497827
426,1.7536933590626551674276976543279
427,1.7541654735118919631480586904890
428,1.7546364837990722900610411326306
429,1.7551063950801495556050321491376
430,1.7555752124750611286144124921468
431,1.7560429410680640603015296737582
432,1.7565095859080672321698976884204
433,1.7569751520089552687318228500894
434,1.7574396443499153129427790284443
435,1.7579030678757544880021858487318
436,1.7583654274972159464849318416746
437,1.7588267280912916681479303663795
438,1.7592869745015309884491666996986
439,1.7597461715383455390570278131583
440,1.7602043239793116715360389731415
441,1.7606614365694675240340661551620
442,1.7611175140216082945890385669677
443,1.7615725610165793687219603071549
444,1.7620265822035619206578933097461
445,1.7624795822003603188040737101887
446,1.7629315655936823598039434949321
447,1.7633825369394195003054356065311
448,1.7638325007629203046131513251845
449,1.7642814615592649486980584182301
450,1.7647294237935329329731300470749
451,1.7651763919010715068968680295560
452,1.7656223702877576467196458643157
453,1.7660673633302593294110399133031
454,1.7665113753762924916829827304620
455,1.7669544107448772979464047727689
456,1.7673964737265890141653559768706
457,1.7678375685838081832801609888720
458,1.7682776995509664980599026910820
459,1.7687168708347908852728849545227
460,1.7691550866145454434806929012338
461,1.7695923510422690841437496528850
462,1.7700286682430120890507112449387
463,1.7704640423150701878042007324956
464,1.7708984773302143162304898122240
465,1.7713319773339200244091450938917
466,1.7717645463455936649800348245288
467,1.7721961883587946422040273990669
468,1.7726269073414587373773384699780
469,1.7730567072361149872559699306969
470,1.7734855919601036399891605197671
471,1.7739135654057894556268847354793
472,1.7743406314407746487710230658908
473,1.7747667939081068242294643195166
474,1.7751920566264894096234933809051
475,1.7756164233904835076596148472777
476,1.7760398979707136818263263743247
477,1.7764624841140680084671337453565
478,1.7768841855438970711724609052746
479,1.7773050059602107868277815242412
480,1.7777249490398734578514590719211
481,1.7781440184367956014492597850607
482,1.7785622177821261246229540148039
483,1.7789795506844402248805337930126
484,1.7793960207299258363518938274136
485,1.7798116314825700981338787125521
486,1.7802263864843404296058126231576
487,1.7806402892553670614433412683729
488,1.7810533432941216187627418268832
489,1.7814655520775949844394785374179
490,1.7818769190614723055886994664811
491,1.7822874476803072773500004411927
492,1.7826971413476942920212265202570
493,1.7831060034564384284049434054451
494,1.7835140373787243752603104008085
495,1.7839212464662824812065141625663
496,1.7843276340505551753466188447411
497,1.7847332034428594439777072496787
498,1.7851379579345493084837582384453
499,1.7855419007971758015720869513101
500,1.785945035282646572162941604275
501,1.786347364623380864777553900567
502,1.786748892032467328409019257293
503,1.787149620703816122801475350512
504,1.787549553812313165771158550671
505,1.787948694513969368826026875858
506,1.788347045946070590959610838472
507,1.788744611227326158429563137085
508,1.789141393458015590260073815852
509,1.789537395720131760133468987033
510,1.789932621077526547680555172805
511,1.790327072576052210014665017436
512,1.790720753243702373472664440690
513,1.791113666090751261066335282249
514,1.791505814109891831872171419285
515,1.791897200276373206423668776430
516,1.792287827548135588260131509100
517,1.792677698865943756188118202569
518,1.793066817153520912458702453136
519,1.793455185317679668622194786970
520,1.793842806248453025881136495915
521,1.794229682819222144988149094110
522,1.794615817886845181707167398992
523,1.795001214291783624813667586191
