Eigenstate,Potential Energy
1,0.500000000120411305664999051538985185
2,0.64623093843709974704667509684736852
3,0.73633761201375647839044036763642516
4,0.79966528262320278590134244454820990
5,0.8480465836158775271797810744754056
6,0.8870660097606425519745485366212578
7,0.9197208425023683327207333990993340
8,0.9477838682215859702019112838822867
9,0.9723835859267179656608144785666574
10,0.9942802497677528377502212544763128
11,1.0140094298867563953000508788585394
12,1.0319622215891675437954706091735301
13,1.0484327549414794693648683547121054
14,1.0636477276274526168203741120114119
15,1.0777855207623306213982233592115335
16,1.090989003763304951501587164020620
17,1.103374367811032087131068979321457
18,1.115037376855841691943638078752578
19,1.126057890721720306541751197765988
20,1.136503202740252131567776910362718
21,1.146430545832319372207353651822749
22,1.155889003666844725073230267509076
23,1.164920988597317814166684334371098
24,1.173563399062218720016039487515626
25,1.181848536380945442303251502893546
26,1.189804838561402500888942910368858
27,1.197457473262577456856579524724943
28,1.204828821153581311015988145712937
29,1.211938873115600905374352224365093
30,1.218805559083723876453885435730986
31,1.225445022179658204031498710293835
32,1.231871848708468810381299674877901
33,1.238099262282805858223453467816676
34,1.244139288587553127406813115189026
35,1.250002895958629783156956648676728
36,1.255700115916199969054816656543755
37,1.261240146988460108553630489452018
38,1.266631444531755055061102171960201
39,1.271881798754925580604949120961242
40,1.276998402759968909174784154563495
41,1.281987912094343726815529543417258
42,1.286856497055258498809403768847341
43,1.291609888779795579182873478034923
44,1.296253419986629582124247708336837
45,1.300792061097528915783786927219212
46,1.305230452353693096240611063768458
47,1.309572932448501847013138537526452
48,1.313823564120665625180340284506212
49,1.317986157087104671233970714884869
50,1.32206428864076096608731405120936
51,1.32606132219308051615963462959385
52,1.32998042400255817312753105592629
53,1.33382457829828707636483511137076
54,1.33759660097989367461706617457283
55,1.34129915205176379092786867111842
56,1.34493474692939062469589892590514
57,1.34850576673847661960975609511504
58,1.35201446771262393990818847894519
59,1.35546298978269435012843478287176
60,1.35885336443989478579695204084858
61,1.36218752194508067500567759715017
62,1.36546729794846806569864653101269
63,1.36869443957670372446852689187922
64,1.37187061103792989273680371598176
65,1.37499739878994554621574247454570
66,1.37807631631171866449280487792615
67,1.38110880851424172625039343765164
68,1.38409625582296648482316931876898
69,1.38703997796074140806689532442101
70,1.38994123745724689824653129623884
71,1.39280124290832470392018854410656
72,1.39562115200629969341322695905878
73,1.39840207436033915307377175642066
74,1.40114507412407592494638168359542
75,1.40385117244609059739775190286207
76,1.40652134975739840547185079107763
77,1.40915654790878409933414319745525
78,1.41175767216966224098363606562207
79,1.41432559309909356941913235408234
80,1.41686114829864994880119945380349
81,1.41936514405597107267542704748287
82,1.42183835688709464676802868743151
83,1.42428153498495303907606137629286
84,1.42669539958080509425787543637639
85,1.42908064622481253315630126688433
86,1.43143794599145449289749499526995
87,1.43376794661501629220928192839540
88,1.43607127355996512886668497441254
89,1.43834853103064191401158022105726
90,1.44060030292435523136422317370596
91,1.44282715373164195729444321048733
92,1.44502962938717078018060850240325
93,1.44720825807450260243041625322383
94,1.44936355098767887979883691781784
95,1.45149600305238779861060246448881
96,1.45360609360925636937819150168712
97,1.45569428706163217319786750551254
98,1.45776103349004562301073431998072
99,1.45980676923539012962907321535851
100,1.46183191745271122201070294463215
101,1.46383688863736636711176588021473
102,1.46582208112519165992665699798252
103,1.46778788156820364071219292163161
104,1.46973466538725723168339043215529
105,1.47166279720298771171103708023244
106,1.47357263124627388330926617183001
107,1.47546451174938150424584067871292
108,1.47733877331886681655416962082386
109,1.47919574129125141219314692715553
110,1.48103573207241725447576436870347
111,1.48285905346160481318997662410189
112,1.48466600496084783770275796577615
113,1.48645687807062275654448450527835
114,1.48823195657244193421547926700006
115,1.48999151679907956745454683861528
116,1.49173582789307067156215498873900
117,1.49346515205409189436446951898687
118,1.49517974477579186430022741792374
119,1.49687985507260506539626470401680
120,1.49856572569705738966433353232456
121,1.50023759334803325020722614553141
122,1.50189568887045522519135684324269
123,1.50354023744679500991132858077244
124,1.50517145878081677436395944926959
125,1.50678956727392445748786384303105
126,1.50839477219446933192729801611025
127,1.50998727784035359529355311690972
128,1.51156728369524315670890468910113
129,1.51313498457869071418009009068241
130,1.51469057079045183648250521940764
131,1.51623422824926135911925042227058
132,1.51776613862632242671963831502534
133,1.51928647947374873265719496661060
134,1.52079542434818923071217513908250
135,1.52229314292984648526004927052169
136,1.52377980113709613893803591740323
137,1.52525556123690166880128427311630
138,1.52672058195120498998866746030633
139,1.52817501855947136001467848115812
140,1.52961902299755159083699469638486
141,1.53105274395302001835957342954407
142,1.53247632695713860576657667546899
143,1.53388991447358890691300615172260
144,1.53529364598410643636330134949871
145,1.53668765807114780491036225686602
146,1.53807208449771311065876708207699
147,1.53944705628443787279048476871859
148,1.54081270178406983709958403605630
149,1.54216914675343245431021712909410
150,1.54351651442297867211431559642009
151,1.54485492556403095524660444979559
152,1.54618449855379783282703685049432
153,1.54750534943825592272914191030015
154,1.54881759199298133227979159426892
155,1.55012133778200867134938719901956
156,1.55141669621479554426199720139909
157,1.55270377460136356719602701033433
158,1.55398267820568772924687577257187
159,1.5552535102973977700538516520190
160,1.5565163722018579116031989091515
161,1.5577713633486834403985464421608
162,1.5590185813187536011742687202881
163,1.5602581218897756555257464282801
164,1.5614900790804547421292637019839
165,1.5627145451933181388475986570176
166,1.5639316108562444423905634311241
167,1.5651413650627448979320626161126
168,1.5663438952110395676825089139664
169,1.5675392871419734005920779083595
170,1.5687276251758119463901135836203
171,1.5699089921479569085105814578925
172,1.5710834694436194026541001220330
173,1.5722511370314863234112913241372
174,1.5734120734964156625586991142514
175,1.5745663560711947640575280949478
176,1.5757140606673912222095794165608
177,1.5768552619053296836104748954440
178,1.5779900331432237074009449492345
179,1.5791184465054891288704362835345
180,1.5802405729102698729211593898425
181,1.5813564820961988660905358658403
182,1.5824662426484217426323312385950
183,1.5835699220239063940473420441035
184,1.5846675865760626037191519950378
185,1.5857593015786935749007113677596
186,1.5868451312493003207939900610714
187,1.5879251387717627173493824625563
188,1.5889993863184126552277747447558
189,1.5900679350715230221450417839825
190,1.5911308452442281668100683302754
191,1.5921881761008950671417488827421
192,1.5932399859769615851049714330797
193,1.5942863322982601121535596370594
194,1.5953272715998399462036709172438
195,1.5963628595443063326413170288061
196,1.5973931509396898614110275676555
197,1.5984181997568605956557979320747
198,1.5994380591465010940406530504901
199,1.6004527814556511607699214632727
200,1.6014624182438382636560830141921
201,1.6024670202988045968198779507729
202,1.6034666376518441643396823613061
203,1.6044613195927605397379797128045
204,1.6054511146844569163807290130939
205,1.6064360707771684143159279507684
206,1.6074162350223496624693990352744
207,1.6083916538862235270466008421639
208,1.6093623731630052077725348445868
209,1.6103284379878074450302204814645
210,1.6112898928492383337322632285933
211,1.6122467816016991031221040268332
212,1.6131991474773920898726294715099
213,1.6141470330980432826194987875180
214,1.6150904804863544138653867384845
215,1.6160295310771838057396555694915
216,1.6169642257284699243267069612674
217,1.6178946047319016018662080236881
218,1.6188207078233438995414184935491
219,1.6197425741930228840634688585177
220,1.6206602424954818264537587697458
221,1.6215737508593067255964799657038
222,1.6224831368966383542136850676834
223,1.6233884377124643883845640878613
224,1.6242896899137066802058910438252
225,1.6251869296181062304383901497105
226,1.6260801924629093993888361062563
227,1.6269695136133639991880760647377
228,1.6278549277710270779865115529170
229,1.6287364691818915485357832883440
230,1.6296141716443363477263668582908
231,1.6304880685169019166837347144078
232,1.6313581927259014106809021481792
233,1.6322245767728626247171567554259
234,1.6330872527418167811800681020716
235,1.6339462523064273510490214395905
236,1.6348016067369686077732291648945
237,1.6356533469071575343253186240375
238,1.6365015033008408148190186126005
239,1.6373461060185423466590250201621
240,1.6381871847838734270346599680751
241,1.6390247689498098955061182374644
242,1.6398588875048390890434133392964
243,1.6406895690789806407099554918402
244,1.6415168419496828106503912398339
245,1.6423407340475987229282549336506
246,1.6431612729622450272253910002134
247,1.6439784859475443676370680059275
248,1.6447923999272592395800423490872
249,1.6456030415003122037980535880790
250,1.6464104369460028420659822963061
251,1.6472146122291193545091499398860
252,1.6480155930049475969509137535226
253,1.6488134046241826304189173593433
254,1.6496080721377424396026806305967
255,1.6503996203014877002366365673707
256,1.6511880735808476807358098461668
257,1.6519734561553586693960308734157
258,1.6527557919231113717986790191232
259,1.6535351045051140818636211628963
260,1.6543114172495720128588739090908
261,1.6550847532360831020422255572958
262,1.6558551352797550142969788820557
263,1.6566225859352421952911566618272
264,1.6573871275007084249752544876086
265,1.6581487820217133966208395136211
266,1.6589075712950254891210272063970
267,1.6596635168723639457883674270745
268,1.6604166400640704933669129425367
269,1.6611669619427146711907478445800
270,1.6619145033466285946599952303486
271,1.6626592848833804370359029217345
272,1.6634013269331806091779153953597
273,1.6641406496522280804132686604068
274,1.6648772729759940496494883316808
275,1.6656112166224468424185062876255
276,1.6663425000952163123332961277399
277,1.6670711426867052311153212401000
278,1.6677971634811394220048669574795
279,1.6685205813575681399055568958107
280,1.6692414149928067920345611067831
281,1.6699596828643298888279096509078
282,1.6706754032531117223165004581387
283,1.6713885942464179853836529312714
284,1.6720992737405454894319041830043
285,1.6728074594435167887271625442021
286,1.6735131688777257371990415599632
287,1.6742164193825390380465509657471
288,1.6749172281168501890020861710009
289,1.6756156120615904724227133113009
290,1.6763115880221977238652381835859
291,1.6770051726310407212386122033714
292,1.6776963823498020806197341800300
293,1.6783852334718235657146796894593
294,1.6790717421244088491138978401889
295,1.6797559242710858137460704664399
296,1.6804377957138359813850459487860
297,1.6811173720952810012527306360453
298,1.6817946689008355168170437293548
299,1.6824697014608232150275107385866
300,1.6831424849525578099984891394017
301,1.6838130344023893740275773990557
302,1.6844813646877181103513552651006
303,1.6851474905389727422827318133406
304,1.6858114265415570978054283080542
305,1.6864731871377663197313418601057
306,1.6871327866286719662630708756347
307,1.6877902391759731855885776435438
308,1.6884455588038214446561449285373
309,1.6890987594006149031487008262748
310,1.6897498547207627696031513830462
311,1.6903988583864232364155571510572
312,1.6910457838892125087490461129431
313,1.6916906445918863220190272820704
314,1.6923334537299957542027194618809
315,1.6929742244135166546369306852929
316,1.6936129696284540670138479723613
317,1.6942497022384191872950280965468
318,1.6948844349861842099624095367240
319,1.6955171804952122063815836311106
320,1.6961479512711620388148802769197
321,1.6967767597033722313449850661877
322,1.6974036180663199145284120814547
323,1.6980285385210583602576195337405
324,1.6986515331166320864789969188431
325,1.6992726137914712963091761368181
326,1.6998917923747638914065602423530
327,1.7005090805878078830427815554664
328,1.7011244900453413928317424623987
329,1.7017380322568552208003002670679
330,1.7023497186278844153630055681191
331,1.7029595604612802867513876485672
332,1.7035675689584639281626131148535
333,1.7041737552206616262885168872097
334,1.7047781302501203484301018457529
335,1.7053807049513076243921202577342
336,1.7059814901320918845549559070507
337,1.7065804965049061298057961047246
338,1.7071777346878959956937498661534
339,1.7077732152060482789350812565808
340,1.7083669484923060213010027838252
341,1.7089589448886658682794105638977
342,1.7095492146472602035460970225416
343,1.7101377679314237010429456236919
344,1.7107246148167442924721849445516
345,1.7113097652921003737508156910158
346,1.7118932292606817295500048913746
347,1.7124750165409977457100166510084
348,1.7130551368678697258152642496882
349,1.7136335998934108615255252686758
350,1.7142104151879914038130269722400
351,1.7147855922411911276304484760324
352,1.7153591404627387774468912127630
353,1.7159310691834377832230842555948
354,1.7165013876560796666478477788561
355,1.7170701050563455084004767486075
356,1.7176372304836936918682217356983
357,1.7182027729622371681476255212172
358,1.7187667414416094922913268077493
359,1.7193291447978153820495182031585
360,1.7198899918340747433229980828396
361,1.7204492912816519136484521138546
362,1.7210070518006766119643590945181
363,1.7215632819809511970946303997711
364,1.7221179903427492659616597254428
365,1.7226711853376038351143343925660
366,1.7232228753490839906554218222079
367,1.7237730686935629062095179847474
368,1.7243217736209740255056459390544
369,1.7248689983155600501937327617245
370,1.7254147508966104543605175927247
371,1.7259590394191903876025224897786
372,1.7265018718748599319143295014393
373,1.7270432561923836881489490175941
374,1.7275832002384350098259586179929
375,1.7281217118182855854340718154923
376,1.7286587986764918352929799856535
377,1.7291944684975699223227204910693
378,1.7297287289066625545756327580944
379,1.7302615874701994300731906941806
380,1.7307930516965480917852290064836
381,1.7313231290366580795791277958846
382,1.7318518268846955090432354974238
383,1.7323791525786727639371914216930
384,1.7329051134010682784198940689377
385,1.7334297165794400431406709830153
386,1.7339529692870335070581020080147
387,1.7344748786433796379484051198981
388,1.7349954517148870924355542890762
389,1.7355146955154291846923434693630
390,1.7360326170069228578331727275933
391,1.7365492230998999903129149025418
392,1.7370645206540746615545807299607
393,1.7375785164789038666443202836621
394,1.7380912173341402780406108566186
395,1.7386026299303799285612536498613
396,1.7391127609296044844532304025370
397,1.7396216169457177569548716833973
398,1.7401292045450764795844540063517
399,1.7406355302470139366485498276883
400,1.7411406005243607632686868229329
401,1.7416444218039589868396343859213
402,1.7421470004671700768152956535246
403,1.7426483428503798459386523921330
404,1.7431484552454981191128991598486
405,1.7436473439004506592425434917861
406,1.7441450150196694837232257562447
407,1.7446414747645787137771430777744
408,1.7451367292540734861532845492742
409,1.7456307845649948154549917128932
410,1.7461236467326029496990087481825
411,1.7466153217510435081675074348637
412,1.7471058155738100141887922239236
413,1.7475951341142039329641971183310
414,1.7480832832457886704088182763228
415,1.7485702688028418501863644752750
416,1.7490560965808023329358380076628
417,1.7495407723367148617317695845151
418,1.7500243017896695338046611183963
419,1.7505066906212404150999452623310
420,1.7509879444759183190060328801476
421,1.7514680689615417422299464497926
422,1.7519470696497252816639344815835
423,1.7524249520762834121168937988575
424,1.7529017217416532839332783190889
425,1.7533773841113129667960210888435
426,1.7538519446161987951574562308814
427,1.7543254086531193503105364040086
428,1.7547977815851661450008980329641
429,1.7552690687421249770757849713236
430,1.7557392754208808703894747467851
431,1.7562084068858241647879799312702
432,1.7566764683692549650295208112458
433,1.7571434650717813491074388197256
434,1.7576094021627224988462365639316
435,1.7580742847805046438106131452470
436,1.7585381180330577894281378795999
437,1.7590009069982114632768573726297
438,1.7594626567240885369339861392273
439,1.7599233722294978829366663380115
440,1.7603830585043270193127503710627
441,1.7608417205099319859489232873278
442,1.7612993631795281041288070661323
443,1.7617559914185813580667211054998
444,1.7622116101051951125252603192632
445,1.7626662240905015956457370927485
446,1.7631198381990492737143242599335
447,1.7635724572291933935108518398493
448,1.7640240859534830212118975501517
449,1.7644747291190525335690193599416
450,1.7649243914480098337242652881093
451,1.7653730776378289195786130825741
452,1.7658207923617397759881960342822
453,1.7662675402691214691734347121201
454,1.7667133259858949732002471549021
455,1.7671581541149194992226644322942
456,1.7676020292363877774347562491822
457,1.7680449559082251468627704111485
458,1.7684869386664890150837647868095
459,1.7689279820257713750618413956363
460,1.7693680904796042021576998351120
461,1.7698072685008657695536186776256
462,1.7702455205421912918204430202150
463,1.7706828510363867056936740538961
464,1.7711192643968439632331565244711
465,1.7715547650179620298634552814840
466,1.7719893572755709516849235530366
467,1.7724230455273585166780914557776
468,1.7728558341133047805667450290198
469,1.7732877273561172006379033714849
470,1.7737187295616741808357939173053
471,1.7741488450194715867206916725121
472,1.7745780780030768328375090146096
473,1.7750064327705862124270032696482
474,1.7754339135650933073797516892451
475,1.7758605246151577507283404424911
476,1.7762862701352872215318668989777
477,1.7767111543264233885373669922874
478,1.7771351813764368803478976557236
479,1.7775583554606305924655723178699
480,1.7779806807422521672090031188910
481,1.7784021613730146602113902684211
482,1.7788228014936294478347885406339
483,1.7792426052343472649664489179385
484,1.7796615767155107277072569913754
485,1.7800797200481203792873994300741
486,1.7804970393344094337047344898925
487,1.7809135386684346853815373032778
488,1.7813292221366788324665206722013
489,1.7817440938186681263800561944269
490,1.7821581577876039304913811381725
491,1.7825714181110110794380488080044
492,1.7829838788514024241267950717849
493,1.7833955440669603762966245276297
494,1.7838064178122374301308089493255
495,1.7842165041388747840044212304972
496,1.7846258070963432876143577761916
497,1.7850343307327034339391183049407
498,1.7854420790953894317128481520345
499,1.7858490562320160061691663657079
500,1.786255266191211272716509504553
501,1.786660713023472711528684949665
502,1.787065400782055052268410536540
503,1.787469333523882967862622122196
504,1.787872515310497933616805728588
505,1.788274950209033698582951845873
506,1.788676642293227791477249211632
507,1.789077595644468700158567859911
508,1.789477814352880261075224936998
509,1.789877302518443498553787799037
510,1.790276064252164096212661589148
511,1.790674103677280988980778646501
512,1.791071424930522370498858316861
513,1.791468032163410272817603016846
514,1.791863929543617092991607008274
515,1.792259121256377306971847686539
516,1.792653611505955627168791387440
517,1.793047404517175917294266828218
518,1.793440504537016095477621911590
519,1.793832915836269474956769104877
520,1.794224642711279304877817898875
521,1.794615689485747467714387222287
522,1.795006060512626045641986829406
523,1.795395760176092924858055954925
