Eigenstate,Potential Energy
1,0.500000000025703577504994196904008015
2,0.64623093781889409769143281306116956
3,0.73633761019781378608370374320037500
4,0.79966527884076304145208905251263664
5,0.8480465770638329542165241221665326
6,0.8870659996217762038712108763496820
7,0.9197208279528034616443568162765209
8,0.9477838484338856895669697601262269
9,0.9723835600713201337201492167338183
10,0.9942802170136923678340109689335984
11,1.0140093894020521107537412907382107
12,1.0319621725410380817151872094370659
13,1.0484326964964661095320440876304094
14,1.0636476589514885375204573668131653
15,1.0777854410207778270520951871924676
16,1.090988912120970884650383518871964
17,1.103374263432173016548660431261088
18,1.115037258904157223564925284861407
19,1.126057758360341770255743884305468
20,1.136503055131726638708413217425115
21,1.146430382138590744226006226797147
22,1.155888823049232114858609650522883
23,1.164920790216492593693620327665575
24,1.173563182078180042345893897862265
25,1.181848299952994772936805859956830
26,1.189804581848117334927807352101408
27,1.197457195421784382917568105605066
28,1.204828521342328543000290001167991
29,1.211938550490130374188449710152485
30,1.218805212799442952386026115532509
31,1.225444651391111104516248724397494
32,1.231871452569307735826614102145930
33,1.238098839945761889375157833388465
34,1.244138839204406910637973443983435
35,1.250002418680182024559197236286383
36,1.255699609892241753887555065355201
37,1.261239611367743059191008246570814
38,1.266630878461961337855244932096758
39,1.271881201382637769900736585097538
40,1.276997773230639714947244755860670
41,1.281987249552265590966624773570003
42,1.286855800643533063987009254468963
43,1.291609157640303033018386163537371
44,1.296252653259997878985179719371948
45,1.300791257923102877471244908298688
46,1.305229611869503392503625251744980
47,1.309572053791233856282290259342764
48,1.313822646425628175525514074795098
49,1.317985199488198661213029928530924
50,1.32206329027044786486347568131706
51,1.32606028218235074201663501245285
52,1.32997934148089934929704413097290
53,1.33382345239365216289416902076941
54,1.33759543081866897484218722513054
55,1.34129793675873683097389476952664
56,1.34493348562771790430099735367250
57,1.34850445854965123245646176410453
58,1.35201311175644306154582015906910
59,1.35546158517722659148093123044037
60,1.35885191030144741016906440978944
61,1.36218601738816667642691153961459
62,1.36546574208577310637686115633904
63,1.36869283151905292906329646245462
64,1.37186894989425449710547814272523
65,1.37499568366724939823152671527704
66,1.37807454631504457448455065800433
67,1.38110698274663766456675937627747
68,1.38409437338545162397931329951868
69,1.38703803795227200688931989996199
70,1.38993923897468202539167998262332
71,1.39279918504639179810272801417092
72,1.39561903385755995764298284948041
73,1.39839989501515278016311396263426
74,1.40114283267056715151462102377419
75,1.40384886797011258356387994525174
76,1.40651898134249793739309629361358
77,1.40915411463616611171371600586732
78,1.41175517311815415663772420515383
79,1.41432302734510945296012463567411
80,1.41685851491615447146145868183958
81,1.41936244211644328526271443692645
82,1.42183558545949155771146623470210
83,1.42427869313567299448845804218378
84,1.42669248637365095690775069785532
85,1.42907766072095465720986306257765
86,1.43143488724939349125804995204441
87,1.43376481369054559324799404691143
88,1.43606806550613331930548738892015
89,1.43834524689771486468519043069492
90,1.44059694175977800255427611363535
91,1.44282371458000048029409409831611
92,1.44502611129015331171382599360727
93,1.44720466007086094851450287020671
94,1.44935987211318938560363042578543
95,1.45149224233981210083168252955661
96,1.45360225008830190760523726782954
97,1.45569035975891245672201088283278
98,1.45775702142904024947823895581150
99,1.45980267143640455190979705540197
100,1.46182773293283625961234878082353
101,1.46383261641043745843133264201765
102,1.46581772020174785159153564185816
103,1.46778343095544631022306437386578
104,1.46973012408900853953021832091939
105,1.47165816421964877909273253444366
106,1.47356790557478269154525873726977
107,1.47545969238317051192547565061017
108,1.47733385924782029042685180201875
109,1.47919073150166246775792930207194
110,1.48103062554694460218491661585642
111,1.48285384917922920613587699498540
112,1.48466070189682821661131767497587
113,1.48645147519645208785189173598877
114,1.48822645285580273695762347847441
115,1.48998591120379912465046127261889
116,1.49173011937907592172375914219735
117,1.49345933957736399871551185301785
118,1.49517382728832044523662923481989
119,1.49687383152234211166919464442179
120,1.49855959502787082371470367296975
121,1.50023135449966015302805352784851
122,1.50188934077845471404024975002186
123,1.50353377904250076414081610156726
124,1.50516488899128920458221084766816
125,1.50678288502190251320550769220559
126,1.50838797639832194278894910523251
127,1.50998036741403074093466188444932
128,1.51156025754822656021892612309935
129,1.51312784161594415409322853259608
130,1.51468330991237107215614026245361
131,1.51622684835162366429794275137838
132,1.51775863860023572601915659275576
133,1.51927885820560033564010667099242
134,1.52078768071959415815992705224555
135,1.52228527581759538218081405485046
136,1.52377180941310276878298049695961
137,1.52524744376814998329228174778101
138,1.52671233759969576889174993331960
139,1.52816664618216841512280076916465
140,1.52961052144632752835345946932478
141,1.53104411207460155380111084633557
142,1.53246756359305142543022022394203
143,1.53388101846010206987600516207826
144,1.53528461615217631090837103142754
145,1.53667849324636153319093871588824
146,1.53806278350023159533941595615567
147,1.53943761792893827931739690082939
148,1.54080312487968760517432121262724
149,1.54215943010370281205612264328442
150,1.54350665682577764634188924253737
151,1.54484492581151587113605383070319
152,1.54617435543234729626097769836087
153,1.54749506172840927841823022960785
154,1.54880715846937759073471399120764
155,1.55011075721332489766011250991509
156,1.55140596736368470155215336457293
157,1.55269289622439180752591256249526
158,1.55397164905327112464111072380447
159,1.5552423291137384762333555397878
160,1.5565050377248797568993993479957
161,1.5577598743099669322279669928653
162,1.5590069364434703423479133935318
163,1.5602463198966221625635083447591
164,1.5614781186815856576423489433338
165,1.5627024250942788299439912011134
166,1.5639193297559029769484344685323
167,1.5651289216532233904744270264313
168,1.5663312881776448864715887907095
169,1.5675265151631272274472645286371
170,1.5687146869229801806144432691381
171,1.5698958862855784061917674562262
172,1.5710701946290340424841394544862
173,1.5722376919148623900449830214669
174,1.5733984567206765384046310099631
175,1.5745525662719449202682044017289
176,1.5757000964728414995061574596253
177,1.5768411219362218534453554489837
178,1.5779757160127543038272075763031
179,1.5791039508192325413489337113653
180,1.5802258972661006901572641259586
181,1.5813416250842134608509439182011
182,1.5824512028508590873475872667586
183,1.5835546980150680968591566366175
184,1.5846521769222321544821533576226
185,1.5857437048380547904959188659166
186,1.5868293459718549789583857124262
187,1.5879091634992473680665709957019
188,1.5889832195842145985660466200312
189,1.5900515754005954412666383204597
190,1.5911142911530044047086114883740
191,1.5921714260972020354973615689654
192,1.5932230385599322934749890460075
193,1.5942691859582453055416689809576
194,1.5953099248183188388736300067112
195,1.5963453107937964258602148262133
196,1.5973753986836558326230663944192
197,1.5984002424496222464011075195720
198,1.5994198952331403437427242959890
199,1.6004344093719180733211650353652
200,1.6014438364160560935344402706985
201,1.6024482271437738412688606794919
202,1.6034476315767456079380682588633
203,1.6044420989950572774798114382353
204,1.6054316779517953411725025663403
205,1.6064164162872781545838360249984
206,1.6073963611429424553489581038914
207,1.6083715589748910124038983886326
208,1.6093420555671156280794266560138
209,1.6103078960444012358832452777975
210,1.6112691248849225895700526651238
211,1.6122257859325409024561935015389
212,1.6131779224088106641014729072950
213,1.6141255769247010122465169332699
214,1.6150687914920466356895513727676
215,1.6160076075347274143277915460913
216,1.6169420658995907508142966006413
217,1.6178722068671205528662328861452
218,1.6187980701618618386677660167013
219,1.6197196949626042382969749794611
220,1.6206371199123368992977775473539
221,1.6215503831279726986798445064891
222,1.6224595222098589587050805512328
223,1.6233645742510682272847105986280
224,1.6242655758464841822780972250412
225,1.6251625631016852162285843943073
226,1.6260555716416292394697702325971
227,1.6269446366191483444413209513543
228,1.6278297927232551414062572019130
229,1.6287110741872679177053840353165
230,1.6295885147967593067778698987906
231,1.6304621478973302562027912954806
232,1.6313320064022197036667867099294
233,1.6321981227997449463464667337325
234,1.6330605291605888497555224626170
235,1.6339192571449270671404863872796
236,1.6347743380094049681771425404373
237,1.6356258026139678970780893182959
238,1.6364736814285464911056567864584
239,1.6373180045396024950528449559881
240,1.6381588016565372250916155908354
241,1.6389961021179669633187748353586
242,1.6398299348978681389310058841169
243,1.6406603286115963267831304484869
244,1.6414873115217807515461866902634
245,1.6423109115440986705563746505547
246,1.6431311562529321539025116299217
247,1.6439480728869086435170798672557
248,1.6447616883543328718047087853175
249,1.6455720292385051083030158687833
250,1.6463791218029361184756731408558
251,1.6471829919964567340440257002373
252,1.6479836654582248327512117858961
253,1.6487811675226347991562381679207
254,1.6495755232241291227091360269701
255,1.6503667573019160125307201524177
256,1.6511548942045931136579118366823
257,1.6519399580946837154930106090235
258,1.6527219728530818965097300154135
259,1.6535009620834134080605747029567
260,1.6542769491163126829839750651280
261,1.6550499570136162820623640226029
262,1.6558200085724775030572302365434
263,1.6565871263294010022019703722232
264,1.6573513325642028783043070936324
265,1.6581126493038947439847947983048
266,1.6588710983264939510821491394317
267,1.6596267011647631827564793228270
268,1.6603794791098794452878632532956
269,1.6611294532150367287679025236291
270,1.6618766442989780601072170055607
271,1.6626210729494662315936699590234
272,1.6633627595266871838437150114975
273,1.6641017241665934855394853478840
274,1.6648379867841851182473278690310
275,1.6655715670767314411750234570181
276,1.6663024845269326134983000050041
277,1.6670307584060279575478822213627
278,1.6677564077768430167827460976079
279,1.6684794514967868109956397426793
280,1.6691999082207913815982575918504
281,1.6699177964042015157907438539479
282,1.6706331343056121458652551661528
283,1.6713459399896566360715530275689
284,1.6720562313297431135610599714162
285,1.6727640260107456506520081814007
286,1.6734693415316463231417639465956
287,1.6741721952081332039394624844466
288,1.6748726041751506937762321877568
289,1.6755705853894068370386001431441
290,1.6762661556318383552339550481252
291,1.6769593315100312390099210702249
292,1.6776501294605997836153683968303
293,1.6783385657515279735591364756201
294,1.6790246564844682533629455950703
295,1.6797084175969997715340948062144
296,1.6803898648648536832999095592209
297,1.6810690139040954438100533814418
298,1.6817458801732734085391056798133
299,1.6824204789755305437264375002155
300,1.6830928254606809974378949645820
301,1.6837629346272519426656403371581
302,1.6844308213244927853779228832607
303,1.6850965002543489106262732728114
304,1.6857599859734035442179879454199
305,1.6864212928947891584595633648473
306,1.6870804352900676851690896671912
307,1.6877374272910767179099417268502
308,1.6883922828917491818727971122226
309,1.6890450159499025606703400583687
310,1.6896956401889980151894190218423
311,1.6903441691998729894025115413367
312,1.6909906164424448162694524561171
313,1.6916349952473867164770504690538
314,1.6922773188177779942889295465947
315,1.6929176002307277501473919043592
316,1.6935558524389734856682536024874
317,1.6941920882724521396321051467272
318,1.6948263204398489062161774703680
319,1.6954585615301209770274311074718
320,1.6960888240139962081941848529554
321,1.6967171202454506314491216779569
322,1.6973434624631609236341681508262
323,1.6979678627919353486647116870044
324,1.6985903332441221490921168532582
325,1.6992108857209971492441917997312
326,1.6998295320141288071694217548737
327,1.7004462838067235361390191487991
328,1.7010611526749484849008765647977
329,1.7016741500892367515424248913143
330,1.7022852874155714626277778873504
331,1.7028945759167501561842167292282
332,1.7035020267536305297607928174855
333,1.7041076509863579320959316099501
334,1.7047114595755727823982424837924
335,1.7053134633836022321543218820849
336,1.7059136731756321274960187359641
337,1.7065120996208621443546304885972
338,1.7071087532936451552343750295237
339,1.7077036446746068920936919804786
340,1.7082967841517519966551883358455
341,1.7088881820215521717032397623846
342,1.7094778484900189304995496268025
343,1.7100657936737605820865821539217
344,1.7106520276010234461672860493877
345,1.7112365602127191168760006421062
346,1.7118194013634352502167487445284
347,1.7124005608224334405083250903451
348,1.7129800482746309975413148424469
349,1.7135578733215701693527073504080
350,1.7141340454823723529399906998164
351,1.7147085741946793804995930445892
352,1.7152814688155815635363729811239
353,1.7158527386225317792038434801030
354,1.7164223928142470133336208000145
355,1.7169904405115977254194492158225
356,1.7175568907584832453271411664406
357,1.7181217525226964407573284411790
358,1.7186850346967768994507258689034
359,1.7192467460988483712640397253258
360,1.7198068954734494080249909923946
361,1.7203654914923489460247774265143
362,1.7209225427553533127383599457522
363,1.7214780577910992533755162159621
364,1.7220320450578380012474272601171
365,1.7225845129442086283066834706334
366,1.7231354697699995535213342010470
367,1.7236849237869011010853024271788
368,1.7242328831792458971856088111729
369,1.7247793560647417378643043500597
370,1.7253243504951926411425518506492
371,1.7258678744572109367091850536716
372,1.7264099358729193496453807546187
373,1.7269505426006430448949830321652
374,1.7274897024355959409526679860464
375,1.7280274231105519843338559895147
376,1.7285637122965128410352531870938
377,1.7290985776033637941907016918991
378,1.7296320265805210153272645922758
379,1.7301640667175720490175332303597
380,1.7306947054449062676866019362728
381,1.7312239501343381720033224000942
382,1.7317518080997206550201366294493
383,1.7322782865975529047163746337574
384,1.7328033928275779086401383293144
385,1.7333271339333731818966516896081
386,1.7338495170029353771293114345839
387,1.7343705490692545258225134737501
388,1.7348902371108818477166193402332
389,1.7354085880524918030125646136611
390,1.7359256087654355764625946031550
391,1.7364413060682863102786380985464
392,1.7369556867273796942244541948474
393,1.7374687574573473863678075549015
394,1.7379805249216418455781696452173
395,1.7384909957330554326316847421483
396,1.7390001764542334307791360867615
397,1.7395080735981806156729494833879
398,1.7400146936287613827760038695609
399,1.7405200429611919980308665580842
400,1.7410241279625292717353161998530
401,1.7415269549521517045308992410877
402,1.7420285302022338507091960327267
403,1.7425288599382167195622361849704
404,1.7430279503392721078553178835357
405,1.7435258075387583288535427851903
406,1.7440224376246734469252204353312
407,1.7445178466401031344284650055230
408,1.7450120405836606540631582558878
409,1.7455050254099218277520150278778
410,1.7459968070298575065167138600863
411,1.7464873913112578013541114685035
412,1.7469767840791516576893669184968
413,1.7474649911162228524527645862205
414,1.7479520181632188376130568052889
415,1.7484378709193567141173460233472
416,1.7489225550427227658579165764376
417,1.7494060761506684021402414746543
418,1.7498884398201996718760717209324
419,1.7503696515883646280008230693134
420,1.7508497169526335240248693576413
421,1.7513286413712757948900402317378
422,1.7518064302637331037214539591969
423,1.7522830890109862906024372484685
424,1.7527586229559198370845997510556
425,1.7532330374036802257805645924007
426,1.7537063376220318018664717782266
427,1.7541785288417076211111585009497
428,1.7546496162567552981065753264124
429,1.7551196050248817670732397245195
430,1.7555885002677898173331003590598
431,1.7560563070715139070894946979670
432,1.7565230304867524050144661032855
433,1.7569886755291915975257447567702
434,1.7574532471798325596754749195940
435,1.7579167503853087133096834670272
436,1.7583791900582019734730994854835
437,1.7588405710773556444133849423878
438,1.7593008982881830472319993417083
439,1.7597601765029725604703744703173
440,1.7602184105011901448269254138322
441,1.7606756050297765118409984489141
442,1.7611317648034425001725590330657
443,1.7615868945049623071544423930146
444,1.7620409987854591949701431642705
445,1.7624940822646930020971863409395
446,1.7629461495313404843460581767256
447,1.7633972051432756546438806957546
448,1.7638472536278433397446322582567
449,1.7642962994821337943501472030415
450,1.7647443471732505250629199764685
451,1.7651914011385788272437105492154
452,1.7656374657860478761014117031057
453,1.7660825454943921150651442185747
454,1.7665266446134083303659777751050
455,1.7669697674642120356782095506764
456,1.7674119183394884637967117675314
457,1.7678531015037428610349657485666
458,1.7682933211935464802169505382488
459,1.7687325816177807861642093408972
460,1.7691708869578795159976120542161
461,1.7696082413680664439547106954335
462,1.7700446489755920637485311604683
463,1.7704801138809677922148569493993
464,1.7709146401581958551287681391208
465,1.7713482318549988239006941215098
466,1.7717808929930459338242001222799
467,1.7722126275681754643658719073889
468,1.7726434395506181971121961783828
469,1.7730733328852144280447307282306
470,1.7735023114916320586574763270439
471,1.7739303792645800329970654026606
472,1.7743575400740214182102785260636
473,1.7747837977653814794746355934611
474,1.7752091561597582532778354654005
475,1.7756336190541245417731197796337
476,1.7760571902215338419880113338768
477,1.7764798734113205428536359173742
478,1.7769016723492990660145037514474
479,1.7773225907379608397724695575725
480,1.7777426322566695007165953175200
481,1.7781618005618528738819189749159
482,1.7785800992871953001934694242354
483,1.7789975320438256911604166478371
484,1.7794141024205041305417277518812
485,1.7798298139838084998272096027554
486,1.7802446702783157122916956104829
487,1.7806586748267844043709946582915
488,1.7810718311303336808095058827978
489,1.7814841426686211416431888049379
490,1.7818956129000180540250640849665
491,1.7823062452617838030560407387949
492,1.7827160431702382096851635641802
493,1.7831250100209316905641376887905
494,1.7835331491888143537690024301228
495,1.7839404640284022227563191187073
496,1.7843469578739438328446661050697
497,1.7847526340395828856077160790978
498,1.7851574958195209062981685275381
499,1.7855615464881774014854975758876
500,1.785964789300349647238661760533
501,1.786367227491367853723392872055
502,1.786768864277253161219925954125
503,1.787169702854869935511873835118
504,1.787569746402080206301355383759
505,1.787968998077893095933557058761
506,1.788367461022614968329054140083
507,1.788765138357998145959896336623
508,1.789162033187387834633289658846
509,1.789558148595865486774857576792
510,1.789953487650394656244415767891
511,1.790348053399962575557946899671
512,1.790741848875721355504570902349
513,1.791134877091127422687970548217
514,1.791527141042079871249285523027
515,1.791918643707058102861788390990
516,1.792309388047256965180201793248
517,1.792699377006720463329178993223
518,1.793088613512475829662323779053
519,1.793477100474664733583738321159
520,1.793864840786674488281795990509
521,1.794251837325266049452043774261
522,1.794638092950703082058378889261
523,1.795023610506878532138720311438
