Eigenstate,Potential Energy
1,0.500000002243370596574773681157678716
2,0.64623095229545554526598139851335869
3,0.73633765272513425498454799325139477
4,0.79966536743056022848472571314164422
5,0.8480467305421083312772980026459586
6,0.8870662371583612833300333409948789
7,0.9197211688903875066242885165159468
8,0.9477843122189076445174790421975065
9,0.9723841662238563852880685041471280
10,0.9942809851140452175118073948704804
11,1.0140103390852101352857847887562240
12,1.0319633234951582033324866072081485
13,1.0484340684635557421167107284649898
14,1.0636492717293648147520228268096554
15,1.0777873144658084669006002097106616
16,1.090991066151317472169066199394957
17,1.103376718031372750052562471774587
18,1.115040034124943484967870465073139
19,1.126060874328641233257293824369639
20,1.136506532050793102725800166325479
21,1.146434240293249836798218845980007
22,1.155893082810219919247891218162035
23,1.164925472044877101093248606602408
24,1.173568306529858249628602862311323
25,1.181853887683260937943279368688038
26,1.189810653616299787281005224325722
27,1.197463772095949637365527850069356
28,1.204835623904052446900071215610744
29,1.211946200039336754192397644028959
30,1.218813430559310783330688888624155
31,1.225453458713051657332212409567704
32,1.231880870938013506421755944161852
33,1.238108890984329391704297194133920
34,1.244149544679535652148980598551843
35,1.250013800507452183555621967248661
36,1.255711690141473255263245628365076
37,1.261252412268438904272004123797901
38,1.266644422408838190769543147622611
39,1.271895510941246940823463767465708
40,1.277012871143081812639598268103208
41,1.282003158743002245516667508235921
42,1.286872544225299247338293509450736
43,1.291626758920123631159583958204563
44,1.296271135745312296710410363728589
45,1.300810645328001585362118800476359
46,1.305249928121080457020982779123649
47,1.309593323036059628267712243903769
48,1.313844893036346450603469131799352
49,1.318008448070252768083335539981882
50,1.32208756566894028476301226876616
51,1.32608560948904101518200911825497
52,1.33000574604134518247737500016686
53,1.33385095981449881629115902794981
54,1.33762406697509217768289566694327
55,1.34132772780204465266000640182699
56,1.34496445799311719313918323200341
57,1.34853663896418442675759596887119
58,1.35204652724710137883290575118717
59,1.35549626307924581106147710185206
60,1.35888787826679268289656978505554
61,1.36222330339421302353641699510011
62,1.36550437444418850732436709366066
63,1.36873283888489114683552702963226
64,1.37191036127526504901649779055266
65,1.37503852843341235135758966837564
66,1.37811885420833812816941172631130
67,1.38115278389104677848725478124118
68,1.38414169829722625973341306288839
69,1.38708691755044387464973465170245
70,1.38998970459184906552650517144311
71,1.39285126843977998165543914823783
72,1.39567276722037235985536532026349
73,1.39845531098821626879747388825419
74,1.40119996435428743736093707186726
75,1.40390774893674880524375665770131
76,1.40657964564876839731102200583236
77,1.40921659683619724590127423147183
78,1.41181950827678530932412491484736
79,1.41438925105156653824372413880632
80,1.41692666329810614064703955346309
81,1.41943255185445378066433536353168
82,1.42190769380188502336520832744930
83,1.42435283791382463279923743927411
84,1.42676870601772106936523974531036
85,1.42915599427608228865129601561783
86,1.43151537439236711248160069331487
87,1.43384749474696900809076862848605
88,1.43615298146810577153383779211833
89,1.43843243944204514942104148148157
90,1.44068645326675325877326294013343
91,1.44291558815273125761099772756034
92,1.44512039077451746883979245480698
93,1.44730139007606995520257126398149
94,1.44945909803300166755763600540158
95,1.45159401037441919110563097080448
96,1.45370660726691435178417469820844
97,1.45579735396307366634983952394023
98,1.45786670141669781247008371882412
99,1.45991508686676989431933078756020
100,1.46194293439206501434078895287866
101,1.46395065543816443807358682583476
102,1.46593864931851214953060722305037
103,1.46790730369104377171090466052259
104,1.46985699501181065856056537208250
105,1.47178808896692899349408808778667
106,1.47370094088409307451552317344647
107,1.47559589612481400022225551002366
108,1.47747329045846585519662845139203
109,1.47933345041915303166468790853387
110,1.48117669364635004477405652283518
111,1.48300332921019948763581881025527
112,1.48481365792230449869814276164761
113,1.48660797263279674909364880502970
114,1.48838655851441238237054585600238
115,1.49014969333426808560853043528505
116,1.49189764771398134781870035427169
117,1.49363068537874747171041297748803
118,1.49534906339594511259769141010700
119,1.49705303240380866036182633040459
120,1.49874283683068021221016262365513
121,1.50041871510531591061107427231330
122,1.50208089985870282291082211916357
123,1.50372961811781068458619933453536
124,1.50536509149168551161750514122669
125,1.50698753635026291183140681989639
126,1.50859716399626414757089354620353
127,1.51019418083051787598037758010078
128,1.51177878851102839242858332871925
129,1.51335118410609965319121648510701
130,1.51491156024180653657767850582024
131,1.51646010524409000670119153390527
132,1.51799700327573852452109882852854
133,1.51952243446850697941619456391696
134,1.52103657505061390632066347096620
135,1.52253959746984047543297691103497
136,1.52403167051245195267283351770048
137,1.52551295941814999469997785654710
138,1.52698362599125158548057935670976
139,1.52844382870828946027762752318159
140,1.52989372282221465972131657545018
141,1.53133346046337864930410407280638
142,1.53276319073746583470657723023214
143,1.53418305982054025083112657948634
144,1.53559321105136476309966219322455
145,1.53699378502114882870751995572411
146,1.53838491966087506648219309598345
147,1.53976675032634894105669559034482
148,1.54113940988111937918289870219694
149,1.54250302877740731034527510810546
150,1.54385773513518392278004124566762
151,1.54520365481953594290509903892226
152,1.54654091151645318947748852025666
153,1.54786962680717621256803210175712
154,1.54918992024124107339308579068308
155,1.55050190940835738639628236883926
156,1.55180571000926058482093498182782
157,1.55310143592567829675363135774768
158,1.55438919928955783452691086695096
159,1.5556691105517006679999943662564
160,1.5569412785499601788025016445876
161,1.5582058105771597516145404572605
162,1.5594628124488987655360282970977
163,1.5607123885714200401446274088473
164,1.5619546420097238641612886563308
165,1.5631896745561208293456111887807
166,1.5644175867994322525863563678053
167,1.5656384781950600425331663716997
168,1.5668524471361616175093235076146
169,1.5680595910261883459990106086300
170,1.5692600063530636492015030569641
171,1.5704537887653031839252229667266
172,1.5716410331504062610375096390404
173,1.5728218337158779524083856909258
174,1.5739962840732787721003450171415
175,1.5751644773257387996016498676045
176,1.5763265061594162437179655486930
177,1.5774824629394378188951719943707
178,1.5786324398109154108076500630173
179,1.5797765288057005535745165263873
180,1.5809148219556223949575142729734
181,1.5820474114130376715590384767301
182,1.5831743895796307802787482336846
183,1.5842958492445175062506451703897
184,1.5854118837328455286531300156499
185,1.5865225870662421618985530355305
186,1.5876280541366438836143779317470
187,1.5887283808952596376937665631460
188,1.5898236645586612308695123193999
189,1.5909140038342937508088632527124
190,1.5919994991680316890677325888377
191,1.5930802530168099719153412901239
192,1.5941563701498270067984577867731
193,1.5952279579823746089122914097559
194,1.5962951269470031822434880085087
195,1.5973579909075178655556773527588
196,1.5984166676222309174573475710646
197,1.5994712792640144758495575510673
198,1.6005219530060417878558447997033
199,1.6015688216837261100979306233813
200,1.6026120245453342168972770565512
201,1.6036517081061429781006816995256
202,1.6046880271239389189827408059317
203,1.6057211457172584808517888171962
204,1.6067512386522163986688871460614
205,1.6077784928292945133034946435143
206,1.6088031090083710615436453944067
207,1.6098253038189417042271983482174
208,1.6108453121134689407168579979414
209,1.6118633897357660273158846450178
210,1.6128798167942533779337990058510
211,1.6138949015530846712780746118990
212,1.6149089850843143761299180252722
213,1.6159224468639098116268876575034
214,1.6169357115469708645243140801139
215,1.6179492572278554953918613964619
216,1.6189636255860971575564345914019
217,1.6199794344492016313877146852254
218,1.6209973934837404205775265494604
219,1.6220183239791779733878466332554
220,1.6230431840490145303993733080426
221,1.6240731010944201150497918085546
222,1.6251094141410333223993113560014
223,1.6261537298062981732553885085483
224,1.6272079974083262616287554777489
225,1.6282746114708861644099857730908
226,1.6293565542826821011347291024388
227,1.6304575984425221233025444132651
228,1.6315826017323617436480186418785
229,1.6327379486366499544762015468429
230,1.6339322334472108621499175505749
231,1.6351773588337343483047419910836
232,1.6364903865630892403965109669042
233,1.6378968377795501075305733532673
234,1.6394370135700611886115940593769
235,1.6411792728492967208583312853185
236,1.6432516471089599798874847112248
237,1.6459320325211761809121940616124
238,1.6499920472293567711503101474855
239,1.6590336400852985642384797150009
