Eigenstate,Potential Energy
1,0.500000000068020090767686989173803102
2,0.64623093809511488741187483355837282
3,0.73633761100919300415615523208466374
4,0.79966528053078168596556856044293223
5,0.8480465799913095829189953942409301
6,0.8870660041518208491031716131524600
7,0.9197208344534859171663387128045516
8,0.9477838572748472928740169571751945
9,0.9723835716231293868656873373862396
10,0.9942802316475189401985737243762540
11,1.0140094074894907228678641367240539
12,1.0319621944540087675505245629925322
13,1.0484327226071560608776311318427438
14,1.0636476896323178802897173787703003
15,1.0777854766443798366689354658339816
16,1.090988953060181272781299110104540
17,1.103374310060025120089347235591667
18,1.115037311593881153315944235844256
19,1.126057817485366288770455066484988
20,1.136503121065682964932314382604025
21,1.146430455255317748103683203427038
22,1.155888903722782534430095184122300
23,1.164920878821140017911231444103217
24,1.173563278988426476857649290141980
25,1.181848405543578656579080354649202
26,1.189804696494021909761849820310050
27,1.197457319498246345445107718097463
28,1.204828655224846921993017225289082
29,1.211938694554475593523350758498937
30,1.218805367421666046834745055879468
31,1.225444816947553063570264019772247
32,1.231871629436608956025173308631353
33,1.238099028500871719710787612269262
34,1.244139039824593278778482924533802
35,1.250002631743041134084536629163802
36,1.255699835775707844667844781981858
37,1.261239850450098224555644196031159
38,1.266631131121845393415942191657442
39,1.271881467999058169864001251044999
40,1.276998054182981512536945539684036
41,1.281987545220301440215108961544281
42,1.286856111407433260674527669621608
43,1.291609483880645592969132146445939
44,1.296252995357778652282364873835845
45,1.300791616259745697447919186511520
46,1.305229986826870258611743091576197
47,1.309572445751635150148663560391681
48,1.313823055771832909677222609823200
49,1.317985626603444760102065578792879
50,1.32206373553845247794564867429841
51,1.32606074598732058874683823786689
52,1.32997982420754109599478558086056
53,1.33382395442718283151235199778037
54,1.33759595254482638374063967306559
55,1.34129847856379006785858300836697
56,1.34493404789847783154173546290986
57,1.34850504167348102504129829210418
58,1.35201371612126877797041565683210
59,1.35546221117154777790629544639518
60,1.35885255831434773821246162678864
61,1.36218668780932461497854392102385
62,1.36546643530547262785992441872142
63,1.36869354792819425057732314349160
64,1.37186968988436485691306380002052
65,1.37499644763049386806694858087424
66,1.37807533464423690817933826906976
67,1.38110779583525118350257543803834
68,1.38409521162763013989246631836886
69,1.38703890174284078256429014798881
70,1.38994012870915877379278895996910
71,1.39280010112099772050456349077641
72,1.39561997666923082133034638449187
73,1.39840086496155003628138699845825
74,1.40114383015008909366050652263871
75,1.40384989338190554771553640141310
76,1.40652003508646754378685911663125
77,1.40915519711298854928282479400187
78,1.41175628472928751063619433809740
79,1.41432416849280507640238748184539
80,1.41685968600346840101548855144489
81,1.41936364354724770224166776404057
82,1.42183681763848629481550230769954
83,1.42427995646839708895524311488533
84,1.42669378126649425073668538827170
85,1.42907898758116944513165507160131
86,1.43143624648510621712751302003373
87,1.43376620571076859554446081366289
88,1.43606949072077662643139591077886
89,1.43834670571759804075966605739997
90,1.44059843459664204440474752680288
91,1.44282524184651976635517203759264
92,1.44502767339994760354886306733589
93,1.44720625743850744568141749833825
94,1.44936150515423483459273988016838
95,1.45149391147078495880961596024739
96,1.45360395572672456170497460000838
97,1.45569210232331349962567645769189
98,1.45775880133896681204518966058566
99,1.45980448911243469360925571312712
100,1.46182958879659141752584579665563
101,1.46383451088459495559692326134513
102,1.46581965371005346546801491592095
103,1.46778540392272690205889221885572
104,1.46973213694118474542881530192676
105,1.47166021738374776357198312015427
106,1.47356999947895096439608174242682
107,1.47546182745668680918090517868187
108,1.47733603592110852026010126562584
109,1.47919295020630472213468743581053
110,1.48103288671569423510227397166767
111,1.48285615324602397928718937922707
112,1.48466304929680351332362331784738
113,1.48645386636595419614969836854619
114,1.48822888823240220261421214226229
115,1.48998839122630417509532356349570
116,1.49173264448754596168223205130366
117,1.49346191021312317846440813531570
118,1.49517644389397130236720326115928
119,1.49687649454177928725666931630160
120,1.49856230490629485380165256634144
121,1.50023411168359133633665803949798
122,1.50189214571574705683677289598599
123,1.50353663218235600318370135633606
124,1.50516779078427090909366121899250
125,1.50678583591995026681478618673700
126,1.50839097685476560640414912435413
127,1.50998341788360479750841883205383
128,1.51156335848708454238227313042812
129,1.51313099348167315564077306714422
130,1.51468651316400634437449795893541
131,1.51623010344966329813870366496106
132,1.51776194600665542112712629308686
133,1.51928221838386825725620137051430
134,1.52079109413468588292843741743594
135,1.52228874293600893389990570186900
136,1.52377533070287374514708519069329
137,1.52525101969886677468501830644674
138,1.52671596864251487029802673773722
139,1.52817033280982983223881267107045
140,1.52961426413317027898374866298895
141,1.53104791129657926564202090975562
142,1.53247141982774803134989827479302
143,1.53388493218674760181174320497700
144,1.53528858785166279351280601492830
145,1.53668252340125897836980665245968
146,1.53806687259480409883460032019245
147,1.53944176644916022050036796924640
148,1.54080733331325995122643263241429
149,1.54216369894006952772405028203603
150,1.54351098655614221046785069666279
151,1.54484931692885790117491947026826
152,1.54617880843143928200804876824568
153,1.54749957710583342618384833259150
154,1.54881173672354277921428457482014
155,1.55011539884448374676070531496945
156,1.55141067287395075544978125984177
157,1.55269766611775683324004505645029
158,1.55397648383562252742668583711476
159,1.5552472292928768331032697955163
160,1.5565100038105364696044167364694
161,1.5577649068138220010342979665001
162,1.5590120358791702619667405260410
163,1.5602514867797979416004837419854
164,1.5614833535298709629497181650016
165,1.5627077284273282572721930665951
166,1.5639247020954104493083988313733
167,1.5651343635229406856369668728192
168,1.5663368001034002950452772598330
169,1.5675320976728443429908897540956
170,1.5687203405466968232563507244535
171,1.5699016115554656812432911024057
172,1.5710759920794155355506476245606
173,1.5722435620822335001538471501016
174,1.5734044001437239506858628733308
175,1.5745585834915662197399653246855
176,1.5757061880321649275340655926320
177,1.5768472883806262084615121241197
178,1.5779819578898889879118899995297
179,1.5791102686790377542955817426566
180,1.5802322916608277726589369966974
181,1.5813480965684453884643145573305
182,1.5824577519815311169086346142514
183,1.5835613253514885670433554694540
184,1.5846588830261034422203456445091
185,1.5857504902734944249762845133807
186,1.5868362113054169149636819010258
187,1.5879161092999434204157466794604
188,1.5889902464235360394486507745997
189,1.5900586838525347622787138920425
190,1.5911214817940772454187471385767
191,1.5921786995064692803924789822202
192,1.5932303953190223391561350198392
193,1.5942766266513765000609222515705
194,1.5953174500323220951249875011610
195,1.5963529211181380109591518836477
196,1.5973830947104603352308943263971
197,1.5984080247736957239734072180964
198,1.5994277644519936517028113337857
199,1.6004423660857903781836597142471
200,1.6014518812279385720259792427714
201,1.6024563606594335675176600272736
202,1.6034558544047496308276891304704
203,1.6044504117467968902863012118139
204,1.6054400812415105456294673320299
205,1.6064249107320823215441411922317
206,1.6074049473628471842375649676611
207,1.6083802375928311916824254021205
208,1.6093508272089746989675780737169
209,1.6103167613390366616108777029977
210,1.6112780844641915324580103746654
211,1.6122348404313261111531707636684
212,1.6131870724650465733304316265570
213,1.6141348231794000574431418466673
214,1.6150781345893257849423859234410
215,1.6160170481218349200594588145629
216,1.6169516046269331236720674113618
217,1.6178818443882897603194169152110
218,1.6188078071336627308394316881878
219,1.6197295320450822035889676159520
220,1.6206470577688057523971847135027
221,1.6215604224250428035676306897571
222,1.6224696636174655893188450808135
223,1.6233748184425001685198068943020
224,1.6242759234984125740440050669249
225,1.6251730148941926433106539847719
226,1.6260661282582390699802904846181
227,1.6269552987468543196771154634657
228,1.6278405610525512199658846571999
229,1.6287219494121783767531378390900
230,1.6295994976148691033777423901323
231,1.6304732390098156516818282877382
232,1.6313432065138791540036920027398
233,1.6322094326190302616186779533129
234,1.6330719493996366257158423200358
235,1.6339307885195903920322956771553
236,1.6347859812392854079362141946348
237,1.6356375584224477621090559036686
238,1.6364855505428213878602754557015
239,1.6373299876907141656780564546610
240,1.6381708995794066784576923323003
241,1.6390083155514279007778141877158
242,1.6398422645847006781998388464745
243,1.6406727752985610273876270734998
244,1.6414998759596529453069662036962
245,1.6423235944877031006410728426765
246,1.6431439584611779260144735561877
247,1.6439609951228244928359287954947
248,1.6447747313851027493407905719217
249,1.6455851938355040903748042517073
250,1.6463924087417666430668319998750
251,1.6471964020569851678458064237347
252,1.6479971994246183727444796234253
253,1.6487948261833987126375896607462
254,1.6495893073721443297168039459434
255,1.6503806677344770146768646864240
256,1.6511689317234462734265121311881
257,1.6519541235060658901155693665349
258,1.6527362669677594305847072226072
259,1.6535153857167214891376443369855
260,1.6542915030881950643891524022404
261,1.6550646421486653772971497929811
262,1.6558348256999748561617230046399
263,1.6566020762833581385298694947686
264,1.6573664161834025402173933808539
265,1.6581278674319325160338793886918
266,1.6588864518118202793026668160180
267,1.6596421908607257927684530721369
268,1.6603951058747661639533456193119
269,1.6611452179121187142216752416355
270,1.6618925477965534450425058796034
271,1.6626371161209041847494313351975
272,1.6633789432504723947072124836878
273,1.6641180493263710773460464164794
274,1.6648544542688059944272562769953
275,1.6655881777802980704682093973009
276,1.6663192393488452590281028610108
277,1.6670476582510313552176721900368
278,1.6677734535550735084323696540975
279,1.6684966441238199378288742471988
280,1.6692172486176899434686618506042
281,1.6699352854975641020097507280051
282,1.6706507730276221432747463587902
283,1.6713637292781317202018256997554
284,1.6720741721281852287765255858174
285,1.6727821192683914852687968595934
286,1.6734875882035182855836067713636
287,1.6741905962550909060837914781963
288,1.6748911605639429477282063948178
289,1.6755892980927241716572961677264
290,1.6762850256283660588246185777680
291,1.6769783597845029346855575574869
292,1.6776693170038515439228943744069
293,1.6783579135605529810582643408108
294,1.6790441655624720139408179270789
295,1.6797280889534558873340327477185
296,1.6804096995155601922414065315813
297,1.6810890128712317327754204034627
298,1.6817660444854577074039301406655
299,1.6824408096678780075128428982772
300,1.6831133235748623839744048233605
301,1.6837836012115528932434811594156
302,1.6844516574338737160004175959149
303,1.6851175069505055215587410812496
304,1.6857811643248279556559973792415
305,1.6864426439768316802472401725899
306,1.6871019601849992286133029027526
307,1.6877591270881518578542878080651
308,1.6884141586872698773134046858322
309,1.6890670688472825423170438159866
310,1.6897178712988278484982877301666
311,1.6903665796399858217309721898717
312,1.6910132073379828169327495613460
313,1.6916577677308682186136066986388
314,1.6923002740291653475735061580473
315,1.6929407393174958935255967214408
316,1.6935791765561792494206206161024
317,1.6942155985828042862153348209353
318,1.6948500181137789194695062162170
319,1.6954824477458546094748248261346
320,1.6961128999576257963188195601484
321,1.6967413871110081889648428559213
322,1.6973679214526920229288976436995
323,1.6979925151155738007440325418308
324,1.6986151801201654925071703761196
325,1.6992359283759829586462706663728
326,1.6998547716829118322955214549205
327,1.7004717217325536821960597804167
328,1.7010867901095496454829851352212
329,1.7016999882928865053871549307523
330,1.7023113276571816456879614583921
331,1.7029208194739483206688900010638
332,1.7035284749128423019781649927499
333,1.7041343050428902811125899968933
334,1.7047383208336982117142273881906
335,1.7053405331566439067827974247940
336,1.7059409527860499490283740185333
337,1.7065395904003397867859745522507
338,1.7071364565831780745251503830760
339,1.7077315618245913226434138350830
340,1.7083249165220749480720463626417
341,1.7089165309816824394625047469095
342,1.7095064154190991342967541710146
343,1.7100945799607002459098462581106
344,1.7106810346445931343327904155125
345,1.7112657894216456404978390408030
346,1.7118488541564979588104802247687
347,1.7124302386285616136612016927422
348,1.7130099525330023518207747460294
349,1.7135880054817104958654303661597
350,1.7141644070042563012019631681097
351,1.7147391665488324045280220667750
352,1.7153122934831830463292087615418
353,1.7158837970955193520353129333681
354,1.7164536865954220865564980100602
355,1.7170219711147322477377884003085
356,1.7175886597084277087759574843254
357,1.7181537613554891489085387521304
358,1.7187172849597545166469077775570
359,1.7192792393507577709764026839320
360,1.7198396332845608387245093685682
361,1.7203984754445705332598808354089
362,1.7209557744423469164190400739576
363,1.7215115388183976995778255585218
364,1.7220657770429637081699030232764
365,1.7226184975167936463382017773363
366,1.7231697085719070397101069901539
367,1.7237194184723482486344299846279
368,1.7242676354149283409499972614592
369,1.7248143675299594571696680678739
370,1.7253596228819773816076833308569
371,1.7259034094704551731162418061420
372,1.7264457352305068122748956064425
373,1.7269866080335808321205987839434
374,1.7275260356881482412774782347417
375,1.7280640259403754314414893901347
376,1.7286005864747935258335006185360
377,1.7291357249149559582328827096966
378,1.7296694488240874504121840064461
379,1.7302017657057262281972905177431
380,1.7307326830043562333418224242728
381,1.7312622081060322070896691442836
382,1.7317903483389947640407951796737
383,1.7323171109742801314334802497383
384,1.7328425032263195180089251441982
385,1.7333665322535317341842500071023
386,1.7338892051589097226657938442767
387,1.7344105289905967493314761992656
388,1.7349305107424561916813757211382
389,1.7354491573546356000480612172807
390,1.7359664757141222211944376706562
391,1.7364824726552903017693287053033
392,1.7369971549604437805342536159928
393,1.7375105293603518434032309708494
394,1.7380226025347759229489163276862
395,1.7385333811129909998240544979777
396,1.7390428716743008575487211110798
397,1.7395510807485469211678531306049
398,1.7400580148166106885244507149187
399,1.7405636803109083205573547632556
400,1.7410680836158816912198277393775
401,1.7415712310684819465838419191105
402,1.7420731289586463190096647133123
403,1.7425737835297710177951392444439
404,1.7430732009791780900832778065380
405,1.7435713874585737181809405839488
406,1.7440683490745040630405885704752
407,1.7445640918888057713600623837585
408,1.7450586219190486502454589335399
409,1.7455519451389733712826454699807
410,1.7460440674789267192765756197508
411,1.7465349948262886464800173815854
412,1.7470247330258947157147211990994
413,1.7475132878804550122853446542447
414,1.7480006651509659493815327193514
415,1.7484868705571192518065816625918
416,1.7489719097777045485536141686214
417,1.7494557884510084236316524972529
418,1.7499385121752070893066218168390
419,1.7504200865087569612227821522698
420,1.7509005169707781182996279234239
421,1.7513798090414346005826985211182
422,1.7518579681623108276673710626641
423,1.7523349997367819748753683018567
424,1.7528109091303819219739144245454
425,1.7532857016711651548801777723799
426,1.7537593826500662283053994844092
427,1.7542319573212542751023783962671
428,1.7547034309024825771646832792633
429,1.7551738085754371114540236955106
430,1.7556430954860769344747237511686
431,1.7561112967449739100876680769999
432,1.7565784174276489314528890542792
433,1.7570444625748999762912505820767
434,1.7575094371931330947326880935610
435,1.7579733462546841547801515508283
436,1.7584361946981392477728332300387
437,1.7588979874286519166340257089743
438,1.7593587293182561904262891129091
439,1.7598184252061761080025992151358
440,1.7602770798991328034866828196534
441,1.7607346981716463149979384964481
442,1.7611912847663356818542886964867
443,1.7616468443942169795834565133731
444,1.7621013817349939137786165651564
445,1.7625549014373503051682054197612
446,1.7630074081192354919947474854046
447,1.7634589063681498206627473766721
448,1.7639094007414234446886786850217
449,1.7643588957664962743330840440981
450,1.7648073959411912312763122672056
451,1.7652549057339883134009959057707
452,1.7657014295842923130398695853978
453,1.7661469719026999338271459535202
454,1.7665915370712626972131315697370
455,1.7670351294437492646782381072513
456,1.7674777533459024748631420265426
457,1.7679194130756957935925732114620
458,1.7683601129035855750168216833378
459,1.7687998570727616501783406489386
460,1.7692386497993958877908850567306
461,1.7696764952728865794591423218074
462,1.7701133976561018649557975281487
463,1.7705493610856208039549698027054
464,1.7709843896719702578258531078530
465,1.7714184874998615529850245754770
466,1.7718516586284240593369710336145
467,1.7722839070914349672225877844483
468,1.7727152368975502814990708656920
469,1.7731456520305295124978380770977
470,1.7735751564494615915351895753784
471,1.7740037540889862812954235153738
472,1.7744314488595153819926886795571
473,1.7748582446474490875932524217075
474,1.7752841453153949995598661265152
475,1.7757091547023787244286886020570
476,1.7761332766240585726767010851468
477,1.7765565148729346956166615605870
478,1.7769788732185573401528281066001
479,1.7774003554077331147264322976589
480,1.7778209651647296650732137616957
481,1.7782407061914773148304535444102
482,1.7786595821677712440363141995136
483,1.7790775967514695899017060755769
484,1.7794947535786902940982495408128
485,1.7799110562640081780585916523326
486,1.7803265084006468358124812236428
487,1.7807411135606721980150220317334
488,1.7811548752951823686434934277579
489,1.7815677971344969675995057505728
490,1.7819798825883438475293608900320
491,1.7823911351460453244848492502249
492,1.7828015582767025160845389329065
493,1.7832111554293777678271414983836
494,1.7836199300332762673765527427330
495,1.7840278854979250452716606204881
496,1.7844350252133526125985165951439
497,1.7848413525502649274334574459540
498,1.7852468708602216417788253075718
499,1.7856515834758101329616085861319
500,1.786055493710819456804359329070
501,1.786458604860409975613346177820
502,1.786860920201286123372833987363
503,1.787262442991863783678836168323
504,1.787663176472440131881915234168
505,1.788063123865358796745616817070
506,1.788462288375176079787380102668
507,1.788860673188826088629883720905
508,1.789258281475784432882299626263
509,1.789655116388228722241332376878
510,1.790051181061201929106332517025
511,1.790446478612771856128442785809
512,1.790841012144190618487613451097
513,1.791234784740052766547894611542
514,1.791627799468452735546905145406
515,1.792020059381142007130574868178
516,1.792411567513684203955721934207
517,1.792802326885609203313446676934
518,1.793192340500568066720539836812
519,1.793581611346485579333284874014
520,1.793970142395713268472624724348
521,1.794357936605179709148312500088
522,1.794744996916542405836634048727
523,1.795131326256337701130993936506
