Eigenstate,Potential Energy
1,0.500000000043985478881838939789939270
2,0.64623093793822894677699768801214134
3,0.73633761054835084296437393247637411
4,0.79966527957089332276168285859357505
5,0.8480465783285715833825478176124452
6,0.8870660015788535151124579368031881
7,0.9197208307612248695598292019662811
8,0.9477838522533312016262353683252795
9,0.9723835650618652207459716529424909
10,0.9942802233356663835080349422131529
11,1.0140093972159614630980651905774480
12,1.0319621820075224013736213949238770
13,1.0484327077762723818092764905881198
14,1.0636476722054555727720874644828123
15,1.0777854564098269681920761579762487
16,1.090988929806100632703093708395401
17,1.103374283574456205043568885626414
18,1.115037281664739902462672027025218
19,1.126057783900443267717471725750086
20,1.136503083612640453985447481930437
21,1.146430413721686039673970018560780
22,1.155888857895955648241221929110116
23,1.164920828488370979770220528444703
24,1.173563223936822264712700743600875
25,1.181848345560094888907320498370292
26,1.189804631365457331398021579315685
27,1.197457249011237151875759754386937
28,1.204828579165860953030705356505979
29,1.211938612709806419915656254585534
30,1.218805279577426967934901923512389
31,1.225444722889671030144135439432648
32,1.231871528950818429210336779283017
33,1.238098921372708474809992117788480
34,1.244138925839388160772250353503051
35,1.250002510685913770350436680884003
36,1.255699707431560319298581861729608
37,1.261239714603608717802367899959195
38,1.266630987557461789093903536768551
39,1.271881316500991633004853922634834
40,1.276997894535200039125653868674490
41,1.281987377206523380486780826799361
42,1.286855934811120817149988449503231
43,1.291609298484998294164245211307025
44,1.296252800945726802824541515798280
45,1.300791412613943805165687396075250
46,1.305229773729690439023179872705625
47,1.309572222985160508656975648178260
48,1.313822823117850901682487314590147
49,1.317985383843440529154066110701395
50,1.32206348245360217199110645638115
51,1.32606048235848465446303078950032
52,1.32997954981525755114887395857470
53,1.33382366905166051524032235379868
54,1.33759565596593818460028759744787
55,1.34129817056106612947668443482112
56,1.34493372825109873564550661705395
57,1.34850471016027095163792803896577
58,1.35201337252068864241503785142879
59,1.35546185526168834457830923537119
60,1.35885218987292271050159756259631
61,1.36218630661366370126568809319195
62,1.36546604113251458316287673260631
63,1.36869314055447989351834287953637
64,1.37186926908603006165293520350154
65,1.37499601318326253083914614111995
66,1.37807488632341388804781688790291
67,1.38110733341571521695729381362531
68,1.38409473488382672888810707206981
69,1.38703841044877505559951901907157
70,1.38993962263838831961993276694761
71,1.39279958004662539405236060880461
72,1.39561944036389752141584059468742
73,1.39840031319742745468052311736029
74,1.40114326269887243510103239722283
75,1.40384931001480622034984591126067
76,1.40651943557420581969694651660126
77,1.40915458122578619456399979160564
78,1.41175565223686038460096389058938
79,1.41432351916435569944077529994314
80,1.41685901960767849064316667308862
81,1.41936295985227067686216641560482
82,1.42183611641193974471813781904021
83,1.42427923747735521406551338512790
84,1.42669304427748026463126937184396
85,1.42907823236014794482540290606746
86,1.43143547279747551813528715137941
87,1.43376541332135303171599517927713
88,1.43606867939381881405279060304078
89,1.43834587521675110641055930425294
90,1.44059758468496181605558760685848
91,1.44282437228645692718447689064289
92,1.44502678395333980795567536887083
93,1.44720534786657139696360182748342
94,1.44936057521755832375713951401568
95,1.45149296092931886397529164617169
96,1.45360298433977480755626096777721
97,1.45569110984953297636682170760558
98,1.45775778753634725330378558672252
99,1.45980345373829851273063282461668
100,1.46182853160758350169596951550748
101,1.46383343163667441722619751182775
102,1.46581855215848535026364545850341
103,1.46778427982207385320841920598164
104,1.46973099004529862331212937980892
105,1.47165904744576122041434720488461
106,1.47356880625126897326926047008835
107,1.47546061069097814675446151501108
108,1.47733479536829720269938204314092
109,1.47919168561656139353689774592705
110,1.48103159783842750785635817473832
111,1.48285483982987172573798028518361
112,1.48466171108962410811498809168262
113,1.48645250311481770861578562742992
114,1.48822749968358153858227730403091
115,1.48998697712526616745763829673678
116,1.49173120457894240908894703957571
117,1.49346044424078183148308560508004
118,1.49517495160088679644883758343853
119,1.49687497567010402184190021772945
120,1.49856075919732981689456416651016
121,1.50023253887777687386744412345769
122,1.50189054555265358612805744249352
123,1.50353500440067466982904219866816
124,1.50516613512180418654999480927867
125,1.50678415211360249800410034067687
126,1.50838926464053348661298668626211
127,1.50998167699656779786687609696909
128,1.51156158866139527319739857356071
129,1.51312919445054766885211152837173
130,1.51468468465971437439268903310995
131,1.51622824520351844032065394178092
132,1.51776005774900524713388427522141
133,1.51928029984408436653273014877633
134,1.52078914504115388953642586672961
135,1.52228676301611838792755675373328
136,1.52377331968300798791196499839755
137,1.52524897730439272693833081260511
138,1.52671389459777275263058727319106
139,1.52816822683812281688120474721151
140,1.52961212595675407218479637202999
141,1.53104574063665161980163643572014
142,1.53246921640443818607390260312778
143,1.53388269571910565304768058202044
144,1.53528631805764898991747573312215
145,1.53668021999773294405015862937871
146,1.53806453529751398159508390415309
147,1.53943939497273176472062017810893
148,1.54080492737118549448435391862738
149,1.54216125824469692026983499876499
150,1.54350851081866365664544665148817
151,1.54484680585929872187768895531513
152,1.54617626173864659724595178744585
153,1.54749699449746475682970519398510
154,1.54880911790605456698667390380741
155,1.55011274352311979149125332235159
156,1.55140798075273056867212239412010
157,1.55269493689946390712785964997992
158,1.55397371722179251809733045747073
159,1.5552444249837856572933169119211
160,1.5565071615051883137123702661185
161,1.5577620262099372415150356468982
162,1.5590091166731732960511264316618
163,1.5602485286668049273025816478442
164,1.5614803562036774673122545982735
165,1.5627046915803968117898204113856
166,1.5639216254188580114565461635318
167,1.5651312467065260054221139434818
168,1.5663336428355111854803631169939
169,1.5675288996404848533878921262127
170,1.5687171014354743142150930909314
171,1.5698983310495778002034798339621
172,1.5710726698616370917612465375300
173,1.5722401978339032379010223628053
174,1.5734009935447312196077623715726
175,1.5745551342203375410432035008920
176,1.5757026957656504549135718850031
177,1.5768437527942860825114786400547
178,1.5779783786576795828021241239381
179,1.5791066454733978154732334529820
180,1.5802286241526644443214512514658
181,1.5813443844271201295351136231047
182,1.5824539948748455042325004156775
183,1.5835575229456699845033407271984
184,1.5846550349857906544633921010945
185,1.5857465962617230344191654275253
186,1.5868322709836047007356976155107
187,1.5879121223278755578786467383630
188,1.5889862124593501989185549208540
189,1.5900546025527060855585427396154
190,1.5911173528134031987335204836650
191,1.5921745224980543823028070133449
192,1.5932261699342627620086916030645
193,1.5942723525399445435177950210236
194,1.5953131268421505302961247502173
195,1.5963485484954042936444449431634
196,1.5973786722995706867612378973077
197,1.5984035522172690781211767267216
198,1.5994232413908454661146447488387
199,1.6004377921589163087689942470554
200,1.6014472560724980087167997027631
201,1.6024516839107330297950537375522
202,1.6034511256962260213915297237385
203,1.6044456307100006052250250629026
204,1.6054352475060884394263304948641
205,1.6064200239257605252366828520809
206,1.6074000071114137750260786981752
207,1.6083752435201187122617827505722
208,1.6093457789368425248372244485331
209,1.6103116584873532145939789200721
210,1.6112729266508163386413184179381
211,1.6122296272720917014350928697326
212,1.6131818035737402247435956936530
213,1.6141294981677453733940484595414
214,1.6150727530669641124884871371800
215,1.6160116096963066023199627407817
216,1.6169461089036585854447966801505
217,1.6178762909705504249525706540924
218,1.6188021956225817663822551489239
219,1.6197238620396050962197669907640
220,1.6206413288656807051029839734096
221,1.6215546342188009580236454424265
222,1.6224638157004010688897405303412
223,1.6233689104046499402785206423904
224,1.6242699549275361276772448202982
225,1.6251669853757514847527080367422
226,1.6260600373753760275891629030234
227,1.6269491460803726607396784917497
228,1.6278343461808935752891893769234
229,1.6287156719114054710710847464631
230,1.6295931570586382892726842220595
231,1.6304668349693592446908917414229
232,1.6313367385579825665494671819722
233,1.6322029003140099333733430370301
234,1.6330653523093177479765358807357
235,1.6339241262052844236543182342657
236,1.6347792532597673803384376818862
237,1.6356307643339333708326850743963
238,1.6364786898989438681303670483416
239,1.6373230600425009493828358655589
240,1.6381639044752558299263564863571
241,1.6390012525370843287041413909976
242,1.6398351332032321210225555068326
243,1.6406655750903338094034625224878
244,1.6414926064623075007561434926389
245,1.6423162552361292629681205357752
246,1.6431365489874899794697737153941
247,1.6439535149563359835459851470945
248,1.6447671800523010529362879852984
249,1.6455775708600247332266656849304
250,1.6463847136443673741408903795771
251,1.6471886343555197781459704588021
252,1.6479893586340102592739805336926
253,1.6487869118156141837661501116885
254,1.6495813189361656487989131025709
255,1.6503726047362751787239996879754
256,1.6511607936659535235925037852541
257,1.6519459098891479507098202453517
258,1.6527279772881874732835903982659
259,1.6535070194681438190180864813775
260,1.6542830597611085243627872982417
261,1.6550561212303864674757051096550
262,1.6558262266746105646368067160798
263,1.6565933986317764800020682844491
264,1.6573576593832027988594403576827
265,1.6581190309574151889232987753681
266,1.6588775351339567167078803225830
267,1.6596331934471275315207762227775
268,1.6603860271896539500845289143847
269,1.6611360574162912109938158682124
270,1.6618833049473556224420408200101
271,1.6626277903721953864623107140372
272,1.6633695340525940785365264535887
273,1.6641085561261142249753735991413
274,1.6648448765093781863766537317024
275,1.6655785149012902220296957649880
276,1.6663094907861980129083529476345
277,1.6670378234370011265548717570273
278,1.6677635319181981777921856690535
279,1.6684866350888841877221202270169
280,1.6692071516056902338693551717388
281,1.6699250999256732802873225210633
282,1.6706404983091536838883000414601
283,1.6713533648225035894380454857196
284,1.6720637173408833697440176838605
285,1.6727715735509329182923350541046
286,1.6734769509534138190725587432898
287,1.6741798668658074528765672481275
288,1.6748803384248654418419750538380
289,1.6755783825891170802989612414034
290,1.6762740161413344844434822951745
291,1.6769672556909533017715503890784
292,1.6776581176764518651772690098511
293,1.6783466183676926974843052698075
294,1.6790327738682214033216085011192
295,1.6797166001175250354836553281810
296,1.6803981128932575213318420626644
297,1.6810773278134220809580630241375
298,1.6817542603385199538578138809861
299,1.6824289257736622369655904516591
300,1.6831013392706465846521962474330
301,1.6837715158299991821162562770858
302,1.6844394703029840850976342048109
303,1.6851052173935770990362783017728
304,1.6857687716604077752010855513054
305,1.6864301475186709523105435799811
306,1.6870893592420071068605530716683
307,1.6877464209643486941283188837949
308,1.6884013466817399582970640102966
309,1.6890541502541263009832659368562
310,1.6897048454071135433287021327268
311,1.6903534457337006765776389533055
312,1.6909999646959836142882297039632
313,1.6916444156268313389442085531197
314,1.6922868117315362472577604705050
315,1.6929271660894380138249795403716
316,1.6935654916555223487933682093893
317,1.6942018012619921881653166630872
318,1.6948361076198166680006770175500
319,1.6954684233202550240999859162181
320,1.6960987608363554184451344579980
321,1.6967271325244326113518789626739
322,1.6973535506255205937851986233872
323,1.6979780272668036938960000294725
324,1.6986005744630251349403829057938
325,1.6992212041178748065822312640683
326,1.6998399280253544868274878904758
327,1.7004567578711233353668005778588
328,1.7010717052338208475426320214677
329,1.7016847815863722438223399627783
330,1.7022959982972727264643018378493
331,1.7029053666318520419775970184346
332,1.7035128977535204106207135859976
333,1.7041186027249962015018149679781
334,1.7047224925095135373084919140910
335,1.7053245779720141436067136739748
336,1.7059248698803195007668618661666
337,1.7065233789062861707695948211941
338,1.7071201156269453577508995478090
339,1.7077150905256227668009859295929
340,1.7083083139930448523650824262570
341,1.7088997963284271698326216579223
342,1.7094895477405473274724207095016
343,1.7100775783488021765126982527144
344,1.7106638981842492330821783469592
345,1.7112485171906341513568958566695
346,1.7118314452254017227178239523327
347,1.7124126920606939662887274776009
348,1.7129922673843321225899690206741
349,1.7135701808007860952439583691349
350,1.7141464418321288830864527224165
351,1.7147210599189780902988688510505
352,1.7152940444214241969414354254457
353,1.7158654046199448742792322643310
354,1.7164351497163067593923243570740
355,1.7170032888344550543691724720085
356,1.7175698310213891598885252257028
357,1.7181347852480275822517292592322
358,1.7186981604100613578894278003126
359,1.7192599653287917405069175771407
360,1.7198202087519610888129172770965
361,1.7203788993545686997256726652515
362,1.7209360457396780686854421072572
363,1.7214916564392101727129466109920
364,1.7220457399147278002370739924188
365,1.7225983045582091640892579603215
366,1.7231493586928096753637927641610
367,1.7236989105736147701867153170813
368,1.7242469683883805781548424888326
369,1.7247935402582670650235498766691
370,1.7253386342385593628529226687971
371,1.7258822583193801409569639032217
372,1.7264244204263919741712314869628
373,1.7269651284214896751913996884825
374,1.7275043901034868995002418231413
375,1.7280422132087877144919103595848
376,1.7285786054120545890477181032548
377,1.7291135743268645928160165843861
378,1.7296471275063569726468444550223
379,1.7301792724438739460265857800760
380,1.7307100165735914683188781999999
381,1.7312393672711428492921415808267
382,1.7317673318542323371469652357625
383,1.7322939175832433447503009227545
384,1.7328191316618362818227274284872
385,1.7333429812375396143803376112266
386,1.7338654734023348101297668886876
387,1.7343866151932309192004701534045
388,1.7349064135928327270603120064754
389,1.7354248755299031543462215714729
390,1.7359420078799170927657027482668
391,1.7364578174656069940565397971442
392,1.7369723110575038204303985130486
393,1.7374854953744708300367010849510
394,1.7379973770842287785917663320210
395,1.7385079628038753940975132343601
396,1.7390172591003987755674600647653
397,1.7395252724911843457195740531103
398,1.7400320094445153658237765065071
399,1.7405374763800655785477625480020
400,1.7410416796693882788138623858651
401,1.7415446256363978616413626306468
402,1.7420463205578445922480049720155
403,1.7425467706637854192063119657866
404,1.7430459821380487238045741330896
405,1.7435439611186904711161567860146
406,1.7440407136984478718728468663940
407,1.7445362459251876719238499347938
408,1.7450305638023465725379622411920
409,1.7455236732893666426895055669370
410,1.7460155803021282378727027946968
411,1.7465062907133746855286669837718
412,1.7469958103531323197422604943030
413,1.7474841450091269443383912468970
414,1.7479713004271931482940836658067
415,1.7484572823116807575007894770243
416,1.7489420963258548525838179081647
417,1.7494257480922922013398622833542
418,1.7499082431932712691076700790248
419,1.7503895871711600856595235864600
420,1.7508697855287969506180551249880
421,1.7513488437298679296588685516724
422,1.7518267671992804231890630758744
423,1.7523035613235306437235965585229
424,1.7527792314510686157707510618987
425,1.7532537828926570776733500180114
426,1.7537272209217278923362189870144
427,1.7541995507747334515594552724116
428,1.7546707776514930877567869455442
429,1.7551409067155384055411247433849
430,1.7556099430944503953771145600975
431,1.7560778918801958330524324948349
432,1.7565447581294601145791079896524
433,1.7570105468639718645236835805331
434,1.7574752630708304158030573287532
435,1.7579389117028239847240229113625
436,1.7584014976787464423621216250297
437,1.7588630258837108437554475596474
438,1.7593235011694586970870943954037
439,1.7597829283546656542689908745732
440,1.7602413122252446942543650321853
441,1.7606986575346439590450132614493
442,1.7611549690041428061561218208622
443,1.7616102513231457253504875494059
444,1.7620645091494687391350684448169
445,1.7625177471096276177990179759357
446,1.7629699697991189334673693214030
447,1.7634211817827011224645082006314
448,1.7638713875946687743185073058833
449,1.7643205917391279880406185519002
450,1.7647687986902649482543262978095
451,1.7652160128926152244046238912220
452,1.7656622387613266345317470927621
453,1.7661074806824214168241943015275
454,1.7665517430130540980406534398599
455,1.7669950300817686828193177222785
456,1.7674373461887504610232182685268
457,1.7678786956060771289775551003242
458,1.7683190825779656206510243125298
459,1.7687585113210171628626474403372
460,1.7691969860244601970145992579292
461,1.7696345108503890172430586878737
462,1.7700710899340013381982938103141
463,1.7705067273838333963989569520036
464,1.7709414272819907462340996066671
465,1.7713751936843787195281535488571
466,1.7718080306209296795430056904816
467,1.7722399420958263501158742693101
468,1.7726709320877262357610844720779
469,1.7731010045499796096220118417854
470,1.7735301634108485940070426245917
471,1.7739584125737216008145832610849
472,1.7743857559173274296600448179735
473,1.7748121972959443748118952574557
474,1.7752377405396118451407850329646
475,1.7756623894543334200487247942886
476,1.7760861478222838554024348944530
477,1.7765090194020103726877435539147
478,1.7769310079286329076007485126643
479,1.7773521171140422076884335752503
480,1.7777723506470961738559389110143
481,1.7781917121938129968533671873641
482,1.7786102053975646577725031570238
483,1.7790278338792661728003624820515
484,1.7794446012375634022345689185717
485,1.7798605110490209008965953748439
486,1.7802755668683043949976036893510
487,1.7806897722283647345061174303967
488,1.7811031306406179177774166963816
489,1.7815156455951244168217175939756
490,1.7819273205607656665391906179141
491,1.7823381589854198524090113828520
492,1.7827481642961355850325868521515
493,1.7831573398993034367529417270309
494,1.7835656891808264346085221825900
495,1.7839732155062877023437566862793
496,1.7843799222211184961250376185863
497,1.7847858126507623197160423558490
498,1.7851908901008390646054110536921
499,1.7855951578573066726511523521639
500,1.785998619186622451961771218097
501,1.786401277335899792280651233574
502,1.786803135533067735284828576238
503,1.787204196987024868160186102034
504,1.787604464887795384530742629772
505,1.788003942406680160454133735211
506,1.788402632696408575819283574725
507,1.788800538891288929428832035797
508,1.789197664107357087989792690789
509,1.789594011442521600164386025704
510,1.789989583976711329192501814380
511,1.790384384772018835443658243550
512,1.790778416872843409379579036470
513,1.791171683306032370963714703759
514,1.791564187081021312288994074888
515,1.791955931189973658038441841353
516,1.792346918607917754499628898442
517,1.792737152292882562264059374370
518,1.793126635186033738402613862562
519,1.793515370211806890478121621241
520,1.793903360278040859828199749320
521,1.794290608276107829789967482731
522,1.794677117081044535524090779692
523,1.795062889551681013060140750645
