Eigenstate,Potential Energy
1,0.500000000013720615293300666787944994
2,0.64623093774067563431625120440430217
3,0.73633760996805367683812490034965152
4,0.79966527836219986895733275943901850
5,0.8480465762348655944836027365442642
6,0.8870659983390266533206246956782690
7,0.9197208261120615002145751081090054
8,0.9477838459305031964044306863900546
9,0.9723835568003947678160634033163406
10,0.9942802128701610920737940116829548
11,1.0140093842807422745532304145493515
12,1.0319621663366968763391179139061631
13,1.0484326891037782495978998116581607
14,1.0636476502650871668290977054495816
15,1.0777854309352513369557666244788831
16,1.090988900530867165046946098623319
17,1.103374250232002036996373777759359
18,1.115037243988392494694690185383238
19,1.126057741623421034026229315657607
20,1.136503036468052014814275185096898
21,1.146430361442528484771924918135128
22,1.155888800215112071458728381924549
23,1.164920765138607469806912066351438
24,1.173563154650784482699642581948913
25,1.181848270070304327591762278606989
26,1.189804549404307325602058266007201
27,1.197457160310988692163825295253630
28,1.204828483458638341791443740373595
29,1.211938509727592799797574341992613
30,1.218805169052059745741418898648021
31,1.225444604552837214192473123581016
32,1.231871402534049894308020715075649
33,1.238098786607377166065544768926469
34,1.244138782456701245194482285268243
35,1.250002358416908743432522881053754
36,1.255699546007100072405032636766021
37,1.261239543754376571088135946118479
38,1.266630807013956493818163794447025
39,1.271881125993522346407218989012940
40,1.276997693793881274471852602969633
41,1.281987165961269934435568341616455
42,1.286855712791642676221082661944900
43,1.291609065420795521781493283779295
44,1.296252556566084408156181705684903
45,1.300791156647926594774028291565909
46,1.305229505906137852161212480349896
47,1.309571943032681436902961399061428
48,1.313822530764818493480200254022380
49,1.317985078817986979722106952950277
50,1.32206316448361349897618339555474
51,1.32606015117159545963660081153297
52,1.32997920513884576838198799577932
53,1.33382331061284214493607315406182
54,1.33759528349156201471542486156423
55,1.34129778377770844322261991567921
56,1.34493332688505800592303827540086
57,1.34850429393756252222877713530044
58,1.35201294116703939592588294410876
59,1.35546140850253135710915570297591
60,1.35885172743339189298918843850769
61,1.36218582821858842743409231964766
62,1.36546554650641430399688299908215
63,1.36869262942155873816071602001342
64,1.37186874117017142461357716500392
65,1.37499546820802364539248130958798
66,1.37807432401202038568434356755488
67,1.38110675349105567274581958183089
68,1.38409413706844719259673167768314
69,1.38703779446487356841560930513101
70,1.38993898820780941630259629131588
71,1.39279892689085459034424244881610
72,1.39561876820405578653552572036281
73,1.39839962175426566871122945078048
74,1.40114255169276583108649420236685
75,1.40384857916574881090360025222308
76,1.40651868460180480792709866235612
77,1.40915380984925636911150260678780
78,1.41175486017501849858576619874441
79,1.41432270613561483310668652944765
80,1.41685818533004239748909735342349
81,1.41936210404332811304419388575600
82,1.42183523878885878150393825908700
83,1.42427833775687753311993791329293
84,1.42669212217591543590910485304377
85,1.42907728759336768684479513688030
86,1.43143450508090794040288440754117
87,1.43376442236997685907236567272016
88,1.43606766492215759270444380088457
89,1.43834483693886739141261987689503
90,1.44059652231445134000700180638052
91,1.44282328553644274989541867395873
92,1.44502567253646644684480861667232
93,1.44720421149499893794074399093467
94,1.44935941360295651234486029800918
95,1.45149177378286117642095591298016
96,1.45360177137213250168414541238392
97,1.45568987077086912191779357438228
98,1.45775652205631074150834433561965
99,1.45980216156601804485893894636740
100,1.46182721245166155632675903836563
101,1.46383208520518119597447004827366
102,1.46581717815895270170512065974059
103,1.46778287796148917473696622346892
104,1.46972956003009874066424652276229
105,1.47165758898182624459310165128045
106,1.47356731904391613459806316484765
107,1.47545909444495560578915706436219
108,1.47733324978777783772528113619916
109,1.47919011040513656437533880500566
110,1.48102999269910079570357657730428
111,1.48285320446505264875703410350364
112,1.48466004520112181249954685933010
113,1.48645080640383463484267717492350
114,1.48822577185070706256759659359788
115,1.48998521787047021632937046857319
116,1.49172941360156905128689562134005
117,1.49345862123954284089495551342176
118,1.49517309627385519028928544585878
119,1.49687308771470757197927830307029
120,1.49855883831034453432792812682677
121,1.50023058475532046605442654882053
122,1.50188855789017888686201291556115
123,1.50353298289296304136169199802786
124,1.50516407946295889365376772149180
125,1.50678206199704205366604088886906
126,1.50838713975898496904994916520333
127,1.50997951704206013854953986582325
128,1.51155939332525251556826125808488
129,1.51312696342338219742047833757852
130,1.51468241763142011388733051987223
131,1.51622594186326402457846818091900
132,1.51775771778522715740040473684806
133,1.51927792294448003884833501521750
134,1.52078673089267479087927194514572
135,1.52228431130496306078198918955920
136,1.52377083009461506292887643607688
137,1.52524644952343390335113593836285
138,1.52671132830814574608827357028417
139,1.52816562172294427435712350119970
140,1.52960948169835245361742347172819
141,1.53104305691656004612101839316697
142,1.53246649290338725326460773857225
143,1.53387993211701621189677301918515
144,1.53528351403362489109291131649190
145,1.53667737523005374815275076828911
146,1.53806164946362763382404767626727
147,1.53943646774924723379015668178456
148,1.54080195843386537542582682887935
149,1.54215824726845000075120711711952
150,1.54350545747753744643698902010426
151,1.54484370982647194508967332501331
152,1.54617312268642164696145029722921
153,1.54749381209726011175240136440130
154,1.54880589182839716972084239510960
155,1.55010947343763738806770753313596
156,1.55140466632814400893093111165291
157,1.55269157780357940556570629467713
158,1.55397031312149387478398996591891
159,1.5552409755450264384586693752743
160,1.5565036663929839916020738764984
161,1.5577584850883572931097431406971
162,1.5590055292053332602407481705680
163,1.5602448945148584201039304620829
164,1.5614766750288081547149011408371
165,1.5627009630428103398113645336192
166,1.5639178491777738929854969346089
167,1.5651274224201694634227004672608
168,1.5663297701611049521301293062435
169,1.5675249782342409247155642342193
170,1.5687131309525856598020954236830
171,1.5698943111442100275094013857355
172,1.5710686001869200646293075833618
173,1.5722360780419226487962659587874
174,1.5733968232865201151365723961974
175,1.5745509131458678002990960464940
176,1.5756984235238242201901592966725
177,1.5768394290329271419197786110083
178,1.5779740030235247043251952508871
179,1.5791022176120880319872196144064
180,1.5802241437087362891079861098095
181,1.5813398510439968218058931972461
182,1.5824494081948280841827542694068
183,1.5835528826099283974066056139531
184,1.5846503406343547833157585020850
185,1.5857418475334736806367834260881
186,1.5868274675162645124051865702838
187,1.5879072637579999050553080009898
188,1.5889812984223179954630682520119
189,1.5900496326827105569981324147596
190,1.5911123267434425956290813179242
191,1.5921694398599226385988783357497
192,1.5932210303585400978383624193773
193,1.5942671556559880119299453388914
194,1.5953078722780845073676469510873
195,1.5963432358781109114352138195359
196,1.5973733012546802085646263682844
197,1.5983981223691502154579136639560
198,1.5994177523625956369130686443103
199,1.6004322435723518361691544709815
200,1.6014416475481442599312411047704
201,1.6024460150678144944536044125515
202,1.6034453961526563287920957912593
203,1.6044398400823724799073475095573
204,1.6054293954096635944799270533785
205,1.6064141099744594927490807513458
206,1.6073940309178056730715590095199
207,1.6083692046954109478256154426570
208,1.6093396770908704320644259116071
209,1.6103054932285696277460465428151
210,1.6112666975862810991385747312972
211,1.6122233340074610983564763614073
212,1.6131754457132563681497652278971
213,1.6141230753142254998334763615802
214,1.6150662648217898220406029099723
215,1.6160050556594130265226865589127
216,1.6169394886735234854481161664843
217,1.6178696041441832192331005275761
218,1.6187954417955124873477483797740
219,1.6197170408058732750256406699075
220,1.6206344398178241839970180052652
221,1.6215476769478446295276312310883
222,1.6224567897958455411208592406635
223,1.6233618154544601277062793688409
224,1.6242627905181297666047704230142
225,1.6251597510919875728044594779432
226,1.6260527328005431864800552690580
227,1.6269417707961774215936502687998
228,1.6278268997674485857678327924185
229,1.6287081539472176235659468063939
230,1.6295855671205967694073320942875
231,1.6304591726327234993714566318814
232,1.6313290033963701907949822305197
233,1.6321950918993844751493777251266
234,1.6330574702119764302480003815759
235,1.6339161699938457828654927037001
236,1.6347712225011588205204761704290
237,1.6356226585933786325308497531663
238,1.6364705087399504113349080206783
239,1.6373148030268472496398219962182
240,1.6381555711629785867955858937636
241,1.6389928424864655857236730060411
242,1.6398266459707862963308180914674
243,1.6406570102307946361606652444006
244,1.6414839635286148764989388882796
245,1.6423075337794160070218983898028
246,1.6431277485570684975344550361063
247,1.6439446350996848385620294553880
248,1.6447582203150514413286096278795
249,1.6455685307859468656147624814154
250,1.6463755927753567595942765569050
251,1.6471794322315834110543669734189
252,1.6479800747932527078923521116018
253,1.6487775457942235794847893190529
254,1.6495718702683995751789629490333
255,1.6503630729544464593290254293072
256,1.6511511783004159076362865684970
257,1.6519362104682816955308335854456
258,1.6527181933383848226459166476334
259,1.6534971505137943762283254332763
260,1.6542731053245845191817571699817
261,1.6550460808320279157930616510741
262,1.6558160998327103198659419637424
263,1.6565831848625651751415003359298
264,1.6573473582008336781560949319868
265,1.6581086418739488280613500376499
266,1.6588670576593456304359632869417
267,1.6596226270892006676185444366229
268,1.6603753714541010685576058946005
269,1.6611253118066471473749677437290
270,1.6618724689649844340638155523270
271,1.6626168635162743805547231758070
272,1.6633585158200977209905248279016
273,1.6640974460117979286011278487708
274,1.6648336740057619774722801412127
275,1.6655672194986422840641793249772
276,1.6662981019725181061084431023876
277,1.6670263406980038821736114067597
278,1.6677519547372962658228569743827
279,1.6684749629471713568084427647222
280,1.6691953839819242221485419037702
281,1.6699132362962585958894436234518
282,1.6706285381481242538011958938523
283,1.6713413076015052754328441253098
284,1.6720515625291563500422715269746
285,1.6727593206152939336407420739630
286,1.6734645993582382818773926069087
287,1.6741674160730114180343301108532
288,1.6748677878938874378879951160819
289,1.6755657317768997994807076291083
290,1.6762612645023063303091619192635
291,1.6769544026770097928498711885339
292,1.6776451627369368933075527462279
293,1.6783335609493796393407013459378
294,1.6790196134152940836581736537428
295,1.6797033360715585406115359067480
296,1.6803847446931988613222925398848
297,1.6810638548955706990482712924961
298,1.6817406821365080815199482736926
299,1.6824152417184350930813416612383
300,1.6830875487904424172177708407499
301,1.6837576183503291508852605720770
302,1.6844254652466119835507605444549
303,1.6850911041804989140488086761993
304,1.6857545497078310827604720246915
305,1.6864158162409941476175243352888
306,1.6870749180507984671282634628393
307,1.6877318692683252723747167353092
308,1.6883866838867463064062531157829
309,1.6890393757631130202913849295695
310,1.6896899586201156609706496646553
311,1.6903384460478158458097987931992
312,1.6909848515053501369818458560752
313,1.6916291883226060084235715835671
314,1.6922714697018720096362088891677
315,1.6929117087194614459696379931147
316,1.6935499183273109510286724339471
317,1.6941861113545514898025384514520
318,1.6948203005090571437590026700691
319,1.6954524983789688194613797207946
320,1.6960827174341928819631093893989
321,1.6967109700278786319104865189074
322,1.6973372683978707407807241000001
323,1.6979616246681401582910364788561
324,1.6985840508501924691143554061391
325,1.6992045588444554608791032735229
326,1.6998231604416441406757268935483
327,1.7004398673241060208217750428857
328,1.7010546910671438630762193540437
329,1.7016676431403208561578661140498
330,1.7022787349087446582298681837378
331,1.7028879776343317429227623451874
332,1.7034953824770531101160419274540
333,1.7041009604961617400118424388171
334,1.7047047226513999745022922423887
335,1.7053066798041911407412185305901
336,1.7059068427188114749498221793269
337,1.7065052220635452186801519175419
338,1.7071018284118239463663868216784
339,1.7076966722433461886488597403226
340,1.7082897639451834427887448971452
341,1.7088811138128682837289289770945
342,1.7094707320514670729282940367454
343,1.7100586287766369027361878185524
344,1.7106448140156667699919915934878
345,1.7112292977085047981615011290108
346,1.7118120897087689827826967145966
347,1.7123931997847450255571579087226
348,1.7129726376203680687887262370674
349,1.7135504128161918750716250341854
350,1.7141265348903429945460896536889
351,1.7147010132794620073032959503901
352,1.7152738573396315232822943250065
353,1.7158450763472902240152928000873
354,1.7164146795001343606756493233809
355,1.7169826759180070736907958177818
356,1.7175490746437737436870770161531
357,1.7181138846441866127898388669778
358,1.7186771148107379202648844955810
359,1.7192387739604972976249912597588
360,1.7197988708369423611062865644404
361,1.7203574141107742463690322616877
362,1.7209144123807245670086399548165
363,1.7214698741743483924764293624536
364,1.7220238079488082693901784581014
365,1.7225762220916475225883780202191
366,1.7231271249215517135850064637110
367,1.7236765246891011484221549394980
368,1.7242244295775112236372168125354
369,1.7247708477033652428778017821602
370,1.7253157871173354173277563931186
371,1.7258592558048949032417104318391
372,1.7264012616870198330558535929839
373,1.7269418126208813067791989133282
374,1.7274809164005316521336140699133
375,1.7280185807575756450012899711356
376,1.7285548133618381463842255772930
377,1.7290896218220199450752228472269
378,1.7296230136863449734410165478523
379,1.7301549964432007361080623898357
380,1.7306855775217687083048133310901
381,1.7312147642926475792851573266271
382,1.7317425640684664589919366287758
383,1.7322689841044927226106760599051
384,1.7327940315992294567031093615128
385,1.7333177136950061281635224943190
386,1.7338400374785631346385706393480
387,1.7343610099816259857342724411234
388,1.7348806381814730517954476397001
389,1.7353989290014975549291289197248
390,1.7359158893117609913634203904452
391,1.7364315259295383020671438267954
392,1.7369458456198583999911752416337
393,1.7374588550960375274017103078319
394,1.7379705610202040243854076920603
395,1.7384809700038173653819456464311
396,1.7389900886081811145938713101260
397,1.7394979233449494301639999832137
398,1.7400044806766271252366991384274
399,1.7405097670170618516758104689624
400,1.7410137887319327063785702064704
401,1.7415165521392313090861992199490
402,1.7420180635097360968891058115663
403,1.7425183290674826561473057664408
404,1.7430173549902279848968675717551
405,1.7435151474099061511681190010236
406,1.7440117124130814562310717782576
407,1.7445070560413962194684816085308
408,1.7450011842920106880511833607798
409,1.7454941031180379324728850261111
410,1.7459858184289762424032063749528
411,1.7464763360911332828569966466600
412,1.7469656619280455932494692232602
413,1.7474538017208945083766021249298
414,1.7479407612089149251464705930436
415,1.7484265460898011990037478257095
416,1.7489111620201065996606474511053
417,1.7493946146156391746005525222979
418,1.7498769094518511835707695414076
419,1.7503580520642263825555333828209
420,1.7508380479486601391311692754120
421,1.7513169025618363313665992346444
422,1.7517946213216003118512251629800
423,1.7522712096073257729697046619755
424,1.7527466727602791271274740118095
425,1.7532210160839777812659321245691
426,1.7536942448445459124861567359180
427,1.7541663642710652293891504950254
428,1.7546373795559207327984899909934
429,1.7551072958551453882305457278387
430,1.7555761182887565721954509474455
431,1.7560438519410917959598183934296
432,1.7565105018611408562618107317115
433,1.7569760730628697508518714091971
434,1.7574405705255474567718149458992
435,1.7579039991940633950216868323729
436,1.7583663639792434825795457690722
437,1.7588276697581629331179488817928
438,1.7592879213744547884553246335229
439,1.7597471236386148620199630415644
440,1.7602052813283041655129643459689
441,1.7606623991886459785955042904994
442,1.7611184819325211252184926484329
443,1.7615735342408611042616757095528
444,1.7620275607629336938241968974668
445,1.7624805661166303597957492931576
446,1.7629325548887464930274749070229
447,1.7633835316352616442409969106116
448,1.7638335008816129748456809113903
449,1.7642824671229697641375134942050
450,1.7647304348245011252889557460644
451,1.7651774084216444331910807832675
452,1.7656233923203673054637626641840
453,1.7660683908974288796721748428511
454,1.7665124085006367756643254182918
455,1.7669554494491033668680145053574
456,1.7673975180334966575110513646867
457,1.7678386185162904614366256300503
458,1.7682787551320102783744940099213
459,1.7687179320874773815566501851192
460,1.7691561535620507589834316153513
461,1.7695934237078647580282484969393
462,1.7700297466500656463933260433702
463,1.7704651264870456931494729025941
464,1.7708995672906729307274737056448
465,1.7713330731065205665576278242492
466,1.7717656479540931750147444651628
467,1.7721972958270489501454303884236
468,1.7726280206934230347778612968148
469,1.7730578264958444026706185682173
470,1.7734867171517538181998788192757
471,1.7739146965536171406501753615991
472,1.7743417685691382706786251810466
473,1.7747679370414670898122251214149
474,1.7751932057894098969288010218866
475,1.7756175786076312644329409296470
476,1.7760410592668598278877395424015
477,1.7764636515140883420541524142502
478,1.7768853590727726792804667705362
479,1.7773061856430286595798791864310
480,1.7777261349018271069298307401265
481,1.7781452105031856826200389405779
482,1.7785634160783610643876104090065
483,1.7789807552360368512864635346568
484,1.7793972315625100139952612450774
485,1.7798128486218773673885230785896
486,1.7802276099562166501117324637583
487,1.7806415190857690598889791602312
488,1.7810545795091178409955053860711
489,1.7814667947033661519391305016534
490,1.7818781681243120763386876198518
491,1.7822887032066229111420694843587
492,1.7826984033640073202290498389917
493,1.7831072719893853282626860004885
494,1.7835153124550572486825578936300
495,1.7839225281128697381861165534202
496,1.7843289222943822219674376589469
497,1.7847344983110293750798655317709
498,1.7851392594542836050186571157682
499,1.7855432089958150326856206231731
500,1.785946350187651102044977135913
501,1.786348686262331564316587575109
502,1.786750220433066291691024098309
503,1.787150955893887388492431784951
504,1.787550895819803443423063342618
505,1.787950043366948770146508335781
506,1.788348401672733366085857735614
507,1.788745973855991437247352236532
508,1.789142763017128128809177264726
509,1.789538772238262692141410053629
510,1.789934004583374141266408450898
511,1.790328463098442629605691078178
512,1.790722150811590446976606275089
513,1.791115070733221252342440822069
514,1.791507225856158218544852274066
515,1.791898619155781463082858900070
516,1.792289253590162975092751441531
517,1.792679132100200113085569210464
518,1.793068257609749458645939725477
519,1.793456633025757807853865063474
520,1.793844261238393157251199311632
521,1.794231145121172479399541462578
522,1.794617287531090564048622168199
523,1.795002691308746361891168776597
