Eigenstate,Potential Energy
1,0.500000000017547480075949409977998766
2,0.64623093776565537659665149880451952
3,0.73633761004142948680317405487549323
4,0.79966527851503282520508526149847094
5,0.8480465764996024959102483393997678
6,0.8870659987486814876868839314097913
7,0.9197208266999136875863757021936796
8,0.9477838467299715908430673022839397
9,0.9723835578449789271784594143147286
10,0.9942802141934113400648320202568478
11,1.0140093859162433167699278905420897
12,1.0319621683180583231417115770580506
13,1.0484326914646288990035949554076150
14,1.0636476530390714512260047506031729
15,1.0777854341560270751307526266523639
16,1.090988904232104134070723571802330
17,1.103374254447381077339911805656762
18,1.115037248751604972869722848434119
19,1.126057746968168551435277274243425
20,1.136503042428046290213026273470365
21,1.146430368051491361761715463606217
22,1.155888807506775617741060460807917
23,1.164920773146714144943492217688742
24,1.173563163409087357814614463770537
25,1.181848279612567345019166591098918
26,1.189804559764305589654839595528601
27,1.197457171522508784443326093481942
28,1.204828495555478656065827692436050
29,1.211938522743563892649221601800504
30,1.218805183020984700047377533153964
31,1.225444619508552013147014712710470
32,1.231871418510403804183196860030526
33,1.238098803638233126276979682288102
34,1.244138800575936264525630817248888
35,1.250002377658414301492890145696526
36,1.255699566404782525572052271545913
37,1.261239565342157562320038052677149
38,1.266630829825773365834701947475762
39,1.271881150063328557822927114385944
40,1.276997719155646818537355144803890
41,1.281987192648981760099975962551197
42,1.286855740839305111275493385504859
43,1.291609094862430697882201661073678
44,1.296252587435732687558051786580422
45,1.300791188979646998630927246541154
46,1.305229539734008490272448453347383
47,1.309571978390799938803131772876729
48,1.313822567687302440785397681074955
49,1.317985117338974339658551255145129
50,1.32206320463726305902848198125584
51,1.32606019299208726326232344999736
52,1.32997924866038155174733913922881
53,1.33382335586964577463439356865388
54,1.33759533051787992643623095671282
55,1.34129783260781008134405623281490
56,1.34493337755323626400508027385743
57,1.34850434647813418438840649241305
58,1.35201299561434557907884751705200
59,1.35546146489093795406587087110490
60,1.35885178579729001639493310289179
61,1.36218588859239485454592163866444
62,1.36546560892457192229169596478002
63,1.36869269391853699177067216948451
64,1.37186880778046676158662670914585
65,1.37499553696615996577717138261352
66,1.37807439495254949043929276366663
67,1.38110682664855771347535481614443
68,1.38409421247753112211517337309282
69,1.38703787216017759214357829054164
70,1.38993906822400144449949234367298
71,1.39279900926263269118178431523603
72,1.39561885296614864001785893183863
73,1.39839970894143302144771900996465
74,1.40114264133979895192382678534529
75,1.40384867130747094742431726237939
76,1.40651877927307164382210091933804
77,1.40915390708495648243448695425104
78,1.41175496001007382089790050247917
79,1.41432280860498110952018394185583
80,1.41685829046870964761864432968801
81,1.41936221188632109287547232014473
82,1.42183534937123744618876039025523
83,1.42427845111373750070773159808655
84,1.42669223834238845202472851463042
85,1.42907740660462209032287249913912
86,1.43143462697214912988903039993945
87,1.43376454717644776060188311372024
88,1.43606779267913912826922507297223
89,1.43834496768167894852715178513418
90,1.44059665607845124228452749607895
91,1.44282342235702872864545935958587
92,1.44502581244907611370337980521356
93,1.44720435453511025854473290793535
94,1.44935955980608828106214916757941
95,1.45149192318457349214801665545524
96,1.45360192400802724472291072111211
97,1.45569002667659043194375594296828
98,1.45775668126754549664190537249192
99,1.45980232411849634185216336803012
100,1.46182737838115719187776372454246
101,1.46383225454751214918178448810855
102,1.46581735094998161767445207803186
103,1.46778305423712384935287445649537
104,1.46972973982629260653934798793977
105,1.47165777233457885820748780492776
106,1.47356750598927366464170988576817
107,1.47545928501901132272018743977830
108,1.47733344402667260455701894694045
109,1.47919030834505932870517953417531
110,1.48103019437628908299677489090122
111,1.48285340991579305689858209276844
112,1.48466025446175050762741140175144
113,1.48645101951073784847571935479047
114,1.48822598884032159004158709093388
115,1.48998543877928391655458920848456
116,1.49172963846612134784087543376973
117,1.49345885009642522446400145514942
118,1.49517332915971172247248787170447
119,1.49687332466623539046879823065737
120,1.49855907936429435947942039282526
121,1.50023082994849710886152874352522
122,1.50188880725944175834891477312150
123,1.50353323647522666340786317112570
124,1.50516433729519341126499899985349
125,1.50678232411627374870603886636171
126,1.50838740620229677544678049361005
127,1.50997978784659215899130981146583
128,1.51155966852820253970248765348968
129,1.51312724306200622157168609413333
130,1.51468270174303286230747283739408
131,1.51622623048523947224486322483404
132,1.51775801095499905437595362484628
133,1.51927822069954243621883366839260
134,1.52078703327058256828275972060127
135,1.52228461834333245554511328783481
136,1.52377114183112420082533165168704
137,1.52524676599582333099735155521320
138,1.52671164955421896499155412318385
139,1.52816594778056827663156089857624
140,1.52960981260545825938297714097260
141,1.53104339271114324260121168889484
142,1.53246683362350853559840636069638
143,1.53388027780080192568027673789407
144,1.53528386471926757666657429411587
145,1.53667773095581268664991409935705
146,1.53806201026782939499669313587248
147,1.53943683367028622562783710487519
148,1.54080232951020439558381565882635
149,1.54215862353862078980402733464332
150,1.54350583898014124297351878406648
151,1.54484409660018004266618179889525
152,1.54617351476997595292891905893604
153,1.54749420952947370797468095017697
154,1.54880629464815487520015216554433
155,1.55010988168389632349419551095374
156,1.55140508003993416317306677392266
157,1.55269199702000420411832421862925
158,1.55397073788173075019096430630733
159,1.5552414058883274027272502857408
160,1.5565041023586762106260036109128
161,1.5577589267158436631183933476575
162,1.5590059765340929862916457384411
163,1.5602453475844475966360362876604
164,1.5614771338788603481801877843905
165,1.5627014277130371734023380316763
166,1.5639183197079656334763518695277
167,1.5651278988501956101419420063296
168,1.5663302525309148280826085649878
169,1.5675254665838642698719016662345
170,1.5687136253221332265736841122347
171,1.5698948115738741784271771122108
172,1.5710691067169753722446486772823
173,1.5722365907127264978224745225376
174,1.5733973421385133068494477643674
175,1.5745514382195751592153274928952
176,1.5756989548598552030422574679209
177,1.5768399666719764489464507662290
178,1.5779745470063728928961458636478
179,1.5791027679796021325814899380942
180,1.5802247005018704236650414429876
181,1.5813404143037928244688072524875
182,1.5824499779624161244529073717561
183,1.5835534589265276057294871598295
184,1.5846509235412738791175469357574
185,1.5857424370721116028315079472013
186,1.5868280637281110523923711996560
187,1.5879078666846363422281789646336
188,1.5889819081054177352474324925370
189,1.5900502491640397714422537196487
190,1.5911129500648608665649576371229
191,1.5921700700633836033954237450001
192,1.5932216674860920977672023056414
193,1.5942677997497747431645704648094
194,1.5953085233803456746368794136744
195,1.5963438940311828843519851126545
196,1.5973739665009966806513022630311
197,1.5983987947512428658894320608449
198,1.5994184319230947949993446404192
199,1.6004329303539871485983334827448
200,1.6014423415937453607955300004457
201,1.6024467164203116780794951115934
202,1.6034461048550812253970038857355
203,1.6044405561778587341047783177641
204,1.6054301189414475466554446368649
205,1.6064148409858808633294835055575
206,1.6073947694523082497098274421089
207,1.6083699507965432755243342906493
208,1.6093404308022865062605006517142
209,1.6103062545940295903797491125184
210,1.6112674666496519377300290474432
211,1.6122241108127173481128967304340
212,1.6131762303044808171268531135593
213,1.6141238677356098971746323235573
214,1.6150670651176355893176605261202
215,1.6160058638741319722020843009131
216,1.6169403048516385225065720348544
217,1.6178704283303290859470255729264
218,1.6187962740344364712807621210578
219,1.6197178811424359402387361547718
220,1.6206352882970001015060844919414
221,1.6215485336147231110332244821474
222,1.6224576546956313760352138309762
223,1.6233626886324743235028092453838
224,1.6242636720198102925154081887655
225,1.6251606409628901068903775365774
226,1.6260536310863418661014985784699
227,1.6269426775426655973047514207796
228,1.6278278150205395786624795013933
229,1.6287090777529454861009484573688
230,1.6295864995251170497293059460708
231,1.6304601136823140091740106918551
232,1.6313299531374317767329961294078
233,1.6321960503784417938373438203515
234,1.6330584374756787268695632871815
235,1.6339171460889676734215309308763
236,1.6347722074746010777432292172689
237,1.6356236524921689754918438800754
238,1.6364715116112442987745325625397
239,1.6373158149179286770466920240249
240,1.6381565921212608872639734814837
241,1.6389938725594922346175071958418
242,1.6398276852062317197829123975939
243,1.6406580586764650234360944199119
244,1.6414850212324489962516212808605
245,1.6423086007894860274737278739532
246,1.6431288249215808106064401224296
247,1.6439457208669808879871683019866
248,1.6447593155336085547764269876338
249,1.6455696355043790908576175038675
250,1.6463767070424157047457974411931
251,1.6471805560961590889105882444541
252,1.6479812083043743844063110750895
253,1.6487786890010606264055812797352
254,1.6495730232202623268864754186939
255,1.6503642357007870738958141056314
256,1.6511523508908292321482294368889
257,1.6519373929525061356984701278771
258,1.6527193857663032167386234972499
259,1.6534983529354348733636287078496
260,1.6542743177901214620024406411379
261,1.6550473033917827275648361873202
262,1.6558173325371523960287742776543
263,1.6565844277623127793479249441148
264,1.6573486113466548428300121027749
265,1.6581099053167622595111247280932
266,1.6588683314502216185558827904879
267,1.6596239112793620002128820496681
268,1.6603766660949239503218687064885
269,1.6611266169496621235691227500505
270,1.6618737846618773189125285952483
271,1.6626181898188871904099012165739
272,1.6633598527804296122918005140083
273,1.6640987936820061406700483015913
274,1.6648350324381627801763437775090
275,1.6655685887457119303870605668944
276,1.6662994820868937896630574296621
277,1.6670277317324846996949608646906
278,1.6677533567448441846777807740538
279,1.6684763759809121875598022873998
280,1.6691968080951485962115222612531
281,1.6699146715424229483180768813466
282,1.6706299845808518112433563730324
283,1.6713427652745870492923681759253
284,1.6720530314965521348870339196483
285,1.6727608009311333108959769376764
286,1.6734660910768216288436600508210
287,1.6741689192488109222699293794371
288,1.6748693025815481169959567581477
289,1.6755672580312405263407199464798
290,1.6762628023783208637951247996781
291,1.6769559522298678140741033748146
292,1.6776467240219850474329921851778
293,1.6783351340221425830027299758479
294,1.6790211983314755380380071267855
295,1.6797049328870423502034887667524
296,1.6803863534640500584375108332005
297,1.6810654756780365740978834546950
298,1.6817423149870192591208720108472
299,1.6824168866936066140283719749584
300,1.6830892059470748263659235750380
301,1.6837592877454095909865719655911
302,1.6844271469373152950902780669501
303,1.6850927982241887411246194762760
304,1.6857562561620609850531386751913
305,1.6864175351635087184946777568267
306,1.6870766494995344579303027869401
307,1.6877336133014127229280189506111
308,1.6883884405625096818106702754349
309,1.6890411451400723540291982622059
310,1.6896917407569877043843744666827
311,1.6903402410035152239967330590388
312,1.6909866593389905111536784724101
313,1.6916310090935012447796320697847
314,1.6922733034695373547993047280453
315,1.6929135555436147090341072436693
316,1.6935517782678736922701148178131
317,1.6941879844716502160996679801408
318,1.6948221868630245107780949115729
319,1.6954543980303448406543777234354
320,1.6960846304437261444306839236842
321,1.6967128964565275191819876575993
322,1.6973392083068046625631310131385
323,1.6979635781187407872395941963405
324,1.6985860179040549846779427586593
325,1.6992065395633898002738993753542
326,1.6998251548876762570409930770783
327,1.7004418755594791486121248131268
328,1.7010567131543197907453410157550
329,1.7016696791419812061886413143285
330,1.7022807848877921745668079114930
331,1.7028900416538915858628395298982
332,1.7034974606004741587143902368612
333,1.7041030527870179020596106539760
334,1.7047068291734915041339457830794
335,1.7053088006215459637294247943604
336,1.7059089778956865217462646867848
337,1.7065073716644277652613022613045
338,1.7071039925014329629436815153110
339,1.7076988508866336963030563963272
340,1.7082919572073358780889115226999
341,1.7088833217593078713970821057766
342,1.7094729547478532066109331269304
343,1.7100608662888675339447098102036
344,1.7106470664098798052743783577710
345,1.7112315650510795045682084449311
346,1.7118143720663274016901779640260
347,1.7123954972241533949131430534510
348,1.7129749502087382538435213138217
349,1.7135527406208828076606313522332
350,1.7141288779789621209892486925621
351,1.7147033717198667449872829645877
352,1.7152762311999307259924750671737
353,1.7158474656958456560844570979833
354,1.7164170844055621800174437053870
355,1.7169850964491793237861816020534
356,1.7175515108698198545928677250726
357,1.7181163366344949112386884555697
358,1.7186795826349571489269478012249
359,1.7192412576885381436019838237220
360,1.7198013705389789937291795620270
361,1.7203599298572458643712607765707
362,1.7209169442423369551475623085575
363,1.7214724222220754876758178323457
364,1.7220263722538937364777501288301
365,1.7225788027256063397027179018727
366,1.7231297219561717673267807058535
367,1.7236791381964448388253641117515
368,1.7242270596299170790367394874884
369,1.7247734943734495447502148471378
370,1.7253184504779938351829912873611
371,1.7258619359293041396438080004267
372,1.7264039586486392788518331035419
373,1.7269445264934547066155196967599
374,1.7274836472580887803407669493457
375,1.7280213286744339919272440990350
376,1.7285575784126046152586263654347
377,1.7290924040815925594866894313184
378,1.7296258132299145955105176835462
379,1.7301578133462527954423942781317
380,1.7306884118600849418146719588007
381,1.7312176161423077819530396835547
382,1.7317454335058502456759435352619
383,1.7322718712062813009710304087229
384,1.7327969364424074113388678075390
385,1.7333206363568632160478222164389
386,1.7338429780366960919414609945893
387,1.7343639685139403461230472636812
388,1.7348836147661849763029522860568
389,1.7354019237171356734817249359528
390,1.7359189022371682560606823293291
391,1.7364345571438738523063172978686
392,1.7369488952025994395302988738509
393,1.7374619231269812134561495705864
394,1.7379736475794693688533641240993
395,1.7384840751718471482950920701323
396,1.7389932124657438098906434911216
397,1.7395010659731411438834120154497
398,1.7400076421568735462317314352563
399,1.7405129474311202149462389180334
400,1.7410169881618937691238999801645
401,1.7415197706675213395803893311332
402,1.7420213012191188762795039319312
403,1.7425215860410614932815116643257
404,1.7430206313114477442815094850197
405,1.7435184431625552941651421155441
406,1.7440150276812940955978023244320
407,1.7445103909096541873484148110880
408,1.7450045388451456175239384068382
409,1.7454974774412333527723733231276
410,1.7459892126077696879140848393695
411,1.7464797502114184160006235786277
412,1.7469690960760743413714393977965
413,1.7474572559832792147490263592179
414,1.7479442356726305141990598799992
415,1.7484300408421873558992097485425
416,1.7489146771488699643302209109806
417,1.7493981502088555503573408309290
418,1.7498804655979677604190431503978
419,1.7503616288520639753155166284732
420,1.7508416454674154404999155382986
421,1.7513205209010841800365808795005
422,1.7517982605712959758092387951809
423,1.7522748698578072481002031122071
424,1.7527503541022694512453250434774
425,1.7532247186085873637045784828458
426,1.7536979686432748793687619092555
427,1.7541701094358057847110525225960
428,1.7546411461789595354507299723330
429,1.7551110840291659450954446531568
430,1.7555799281068416474462146789466
431,1.7560476834967258366974919653187
432,1.7565143552482124346242183616187
433,1.7569799483756740227304111096656
434,1.7574444678587886372729453947277
435,1.7579079186428572508118385214690
436,1.7583703056391198412526522782404
437,1.7588316337250682097269530008117
438,1.7592919077447545293496215343364
439,1.7597511325090963061325828144906
440,1.7602093127961788232422947571723
441,1.7606664533515522284278977524974
442,1.7611225588885268282394945490842
443,1.7615776340884662367049140878145
444,1.7620316836010729978083302001342
445,1.7624847120446760124013524855115
446,1.7629367240065107938673565352460
447,1.7633877240429997216785849508422
448,1.7638377166800255110176400771273
449,1.7642867064132057389386122973212
450,1.7647346977081605794780306001278
451,1.7651816950007812507790771621019
452,1.7656277026974920155461015859291
453,1.7660727251755114778690674825226
454,1.7665167667831095653346071003593
455,1.7669598318398638202634527675912
456,1.7674019246369102970395061360765
457,1.7678430494371937612044011266914
458,1.7682832104757135861795766339712
459,1.7687224119597678615062482654358
460,1.7691606580691953549112264465263
461,1.7695979529566131778877007804719
462,1.7700343007476533678058489228404
463,1.7704697055411969902876979674849
464,1.7709041714096039227156343020943
465,1.7713377023989422875723784112493
466,1.7717703025292146662725554039165
467,1.7722019757945803739634775789685
468,1.7726327261635788108976963906628
469,1.7730625575793463670355018352897
470,1.7734914739598344043787277847673
471,1.7739194791980225841027956584702
472,1.7743465771621318360589213079359
473,1.7747727716958323215078514155267
474,1.7751980666184538930378385772004
475,1.7756224657251879743800413761788
476,1.7760459727872933738842088827257
477,1.7764685915522963646083468505075
478,1.7768903257441897069672529638266
479,1.7773111790636295032794363670787
480,1.7777311551881302787484669593175
481,1.7781502577722568397080996557850
482,1.7785684904478164778709140403548
483,1.7789858568240469005305829532978
484,1.7794023604878027064236538129220
485,1.7798180050037418840780886412686
486,1.7802327939145069173912914145748
487,1.7806467307409073471685793202912
488,1.7810598189820983850568028193111
489,1.7814720621157588079190642483059
490,1.7818834635982659956413936535184
491,1.7822940268648702465162388845606
492,1.7827037553298669582499696661505
493,1.7831126523867666494611139871732
494,1.7835207214084639155647018219709
495,1.7839279657474035113915605482880
496,1.7843343887357468048143341273991
497,1.7847399936855342867490088596185
498,1.7851447838888480826312209009423
499,1.7855487626179719625310637814310
500,1.785951933125550980219031370345
501,1.786354298644746487031357632194
502,1.786755862389393975522030065655
503,1.787156627554155220830219635864
504,1.787556597314672563399711880768
505,1.787955774827718180310044980825
506,1.788354163231344075098352916763
507,1.788751765645030633885498010676
508,1.789148585169833387548849770928
509,1.789544624888526210610583861750
510,1.789939887865747009853787425100
511,1.790334377148139133515481982632
512,1.790728095764492401022449202453
513,1.791121046725882368777270867573
514,1.791513233025808508225624690511
515,1.791904657640331670273060193167
516,1.792295323528209046207906187737
517,1.792685233631027699691034015950
518,1.793074390873338455018492130675
519,1.793462798162786923422913200744
520,1.793850458390244524237725552922
521,1.794237374429936295974848611945
522,1.794623549139569773338171774419
523,1.795008985360461367152096186073
