Eigenstate,Potential Energy
1,0.500000000034481272932844246933461854
2,0.64623093787619034684156145398776164
3,0.73633761036611702144145641773193799
4,0.79966527919131982479643453278022128
5,0.8480465776710698380490004865760339
6,0.8870660005614227990331468725370253
7,0.9197208293012008340398697851998604
8,0.9477838502676978947652969435484801
9,0.9723835624674000451344837944839516
10,0.9942802200490135462187868514014029
11,1.0140093931536717629496119000801076
12,1.0319621770860758620144644313669809
13,1.0484327019120915458386235229075219
14,1.0636476653149134211065086540955001
15,1.0777854484092515967751388500012522
16,1.090988920611777892162883301360360
17,1.103374273102631015093385877297926
18,1.115037269831616677365559135794136
19,1.126057770622185729211016120908867
20,1.136503068805371011905222411080683
21,1.146430397301484860870703283688296
22,1.155888839778859496352354961446675
23,1.164920808590371883541656146752672
24,1.173563202173866055943098387924144
25,1.181848321848079639746040640125488
26,1.189804605620231712846388171663129
27,1.197457221148598729771291170834872
28,1.204828549101554433796350613941053
29,1.211938580359521855446053346582528
30,1.218805244856797926845494290011594
31,1.225444685714272741006921974474649
32,1.231871489236165900190666637866192
33,1.238098879034254593196310162484578
34,1.244138880792521775180196588997138
35,1.250002462845957757830435427997894
36,1.255699656713769639143182206728114
37,1.261239660923168453507537194687895
38,1.266630930829485179656184996948863
39,1.271881256640518094517995913749219
40,1.276997831457193177464109638293956
41,1.281987310825868995720387105882486
42,1.286855865042624900217197556378483
43,1.291609225243385016235186403465763
44,1.296252724145636497705819903390752
45,1.300791332169930945032893028699456
46,1.305229689556221603712048688532781
47,1.309572134996612348698006937431116
48,1.313822731228508095224945713612772
49,1.317985287967493732892408780492607
50,1.32206338250514596617893044226818
51,1.32606037825151548207577501692263
52,1.32997944146367165123609246032567
53,1.33382355636925185049076694412189
54,1.33759553886639636312787182235461
55,1.34129804895797432082224100678314
56,1.34493360205793158097782297551797
57,1.34850457929039246812755722306003
58,1.35201323688735012174561806488085
59,1.35546171477802624555243564292940
60,1.35885204445195654569150144854401
61,1.36218615616829391765294138179580
62,1.36546588557552043670597832230995
63,1.36869297979851731758227748855388
64,1.37186910304362952923051600741205
65,1.37499584176682691049005746742503
66,1.37807470944521629347784345135901
67,1.38110715098789685015701781834365
68,1.38409454681839471674753673567232
69,1.38703821665760027991239508811661
70,1.38993942303320324038916480303943
71,1.39279937453902186600570243722848
72,1.39561922886532460363896733513590
73,1.39840009561918921327266695426150
74,1.40114303895212573875660841354203
75,1.40384908001055852876779518730902
76,1.40651919922331296471797316408423
77,1.40915433843895015393437404883915
78,1.41175540292462704826014668442782
79,1.41432326323711262822877671837933
80,1.41685875697565266732228698086367
81,1.41936269042552624934650122547168
82,1.42183584010037576140303940398958
83,1.42427895419070335114807494074943
84,1.42669275392530254531175136119591
85,1.42907793485183445027845511993105
86,1.43143516804224209013875268380351
87,1.43376510122823896682402299163577
88,1.43606835987168454919899316403340
89,1.43834554817427589582592383896868
90,1.44059725003064139938488729956458
91,1.44282402992860118868389988636122
92,1.44502643380007042665346889933537
93,1.44720498982581948766454881052821
94,1.44936020919706206877070475944439
95,1.45149258683662113544634814784554
96,1.45360260208222078027636191105391
97,1.45569071933426773094298376304096
98,1.45775738867031336956087630018282
99,1.45980304642823365322242609675841
100,1.46182811576001798519904044886457
101,1.46383300715792878208983850338843
102,1.46581811895466790748802011402739
103,1.46778383779907822912225820942553
104,1.46973053910880129172022788346673
105,1.47165858750121902408420389891022
106,1.47356833720391663462519927004475
107,1.47546013244582576764657964000815
108,1.47733430783012775311369833658267
109,1.47919118868992818911202235246426
110,1.48103109142765167607104479042130
111,1.48285432383903966063287259753437
112,1.48466118542258491341082868692657
113,1.48645196767518062908935158517908
114,1.48822695437471337956019024011144
115,1.48998642185028870228724544226347
116,1.49173063924072977444426469768504
117,1.49345986874195791036276381742646
118,1.49517436584382258872210457725404
119,1.49687437955691500219718179740340
120,1.49856015262987328004440958900974
121,1.50023192175764926686229282732680
122,1.50188991778118782763023767996043
123,1.50353436587893745619714256353085
124,1.50516548575059328458270804632398
125,1.50678349179344402419134170668064
126,1.50838859327167917274095363700575
127,1.50998099447899224282248921988774
128,1.51156089489479318081629395912719
129,1.51312848933433107165319811995103
130,1.51468396809300984304093949123254
131,1.51622751708516427865858752878960
132,1.51775931797754867262084969616979
133,1.51927954831777867592988236585784
134,1.52078838165795560967391899064730
135,1.52228598767368441138906825595755
136,1.52377253227869269347047021681402
137,1.52524817773524508457555656309391
138,1.52671308276053341297126576101431
139,1.52816740262922118487179691222183
140,1.52961128927230536484491807408357
141,1.53104489137245390787509154839379
142,1.53246835445596941940462261283212
143,1.53388182098152066950457560162174
144,1.53528543042577650769050818915273
145,1.53667931936607253713865439852950
146,1.53806362156023303830758637967391
147,1.53943846802366242900423109985077
148,1.54080398710382158989972953123560
149,1.54216030455219085642657197944085
150,1.54350754359382331791105326508633
151,1.54484582499458433817148101420739
152,1.54617526712616759672776029336739
153,1.54749598602897660029156806186827
154,1.54880809547295556375407309901883
155,1.55011170701644789663856757215193
156,1.55140693006316016135541412720341
157,1.55269387191730254983632371012398
158,1.55397263783697769662294450738868
159,1.5552433310858815012164809073954
160,1.5565060529833822971994642378575
161,1.5577609029530368642220122978773
162,1.5590079785696027439254458662398
163,1.5602473756046017130738258026479
164,1.5614791880704890504600051737205
165,1.5627035082634771977752147268011
166,1.5639204268050643300022742242034
167,1.5651300326823150676233854116444
168,1.5663324132869360195275783387810
169,1.5675276544531912186796100655416
170,1.5687158404946971936378655084344
171,1.5698970542401378703530737947211
172,1.5710713770679371708776525423454
173,1.5722388889399247112875691771733
174,1.5733996684340304423024478312327
175,1.5745537927760422175082569256552
176,1.5757013378704559955069086983583
177,1.5768423783304519365017146495827
178,1.5779769875070255476863176591455
179,1.5791052375173003223543933975301
180,1.5802271992720528191005085357290
181,1.5813429425024728296696375813683
182,1.5824525357861863308121862701574
183,1.5835560465725642693898217943973
184,1.5846535412073414222394698463154
185,1.5857450849565671388901690697516
186,1.5868307420299089357231744183341
187,1.5879105756033327420440382619673
188,1.5889846478411752343519560975230
189,1.5900530199176319898651020033752
190,1.5911157520376771103473568741300
191,1.5921729034574335387557604148165
192,1.5932245325040104508784735330876
193,1.5942706965948260257773624197005
194,1.5953114522564289357834631085823
195,1.5963468551428364883690979046952
196,1.5973769600534031117610631814105
197,1.5984018209502335595800011720855
198,1.5994214909751549964486970204191
199,1.6004360224662607983868001704714
200,1.6014454669740400081546390444120
201,1.6024498752771034219267270303111
202,1.6034492973975196834083429825439
203,1.6044437826157720400788617539141
204,1.6054333794853473764253896278939
205,1.6064181358469674894804885239343
206,1.6073980988424756253630782981777
207,1.6083733149283841474496872149884
208,1.6093438298890975575829122976261
209,1.6103096888498166131464656152397
210,1.6112709362891350356080280507937
211,1.6122276160513361694882269088530
212,1.6131797713583998188799452755971
213,1.6141274448217236394080527671133
214,1.6150706784535740613150820720948
215,1.6160095136782659498997479611590
216,1.6169439913430849577608973163335
217,1.6178741517289565278845877879156
218,1.6188000345608705200191777850719
219,1.6197216790180647332697968064839
220,1.6206391237439798330347861733189
221,1.6215524068559835845690593061759
222,1.6224615659548815905346701957763
223,1.6233666381342080933646499246410
224,1.6242676599893119017329568619050
225,1.6251646676262399976679144124530
226,1.6260576966704223622442758717784
227,1.6269467822751666626951864195090
228,1.6278319591299646111377804768635
229,1.6287132614686171470501551751915
230,1.6295907230771831297307847650143
231,1.6304643773017533299971185372908
232,1.6313342570560601300306983866505
233,1.6322003948289179168594523833573
234,1.6330628226915103155292992993733
235,1.6339215723045174330510638294168
236,1.6347766749250928118768537941375
237,1.6356281614136937130187635036528
238,1.6364760622407664598061622893361
239,1.6373204074932922778463473847350
240,1.6381612268811957845906759745935
241,1.6389985497436204098380295767959
242,1.6398324050550736031099682955649
243,1.6406628214314458586538844777055
244,1.6414898271359052462929040104705
245,1.6423134500846718212163572924049
246,1.6431337178526744312605768377111
247,1.6439506576790913034477707837360
248,1.6447642964727819903192157226294
249,1.6455746608176056445600272978266
250,1.6463817769776360060183322333673
251,1.6471856709022710005273723295768
252,1.6479863682312397484273527456362
253,1.6487838942995120543868103761785
254,1.6495782741421100347776562157472
255,1.6503695324988257620298150171979
256,1.6511576938188450107294870127023
257,1.6519427822652834962017198424886
258,1.6527248217196320496333477400034
259,1.6535038357861175325833710988962
260,1.6542798477959798765821761618926
261,1.6550528808116655608739102441726
262,1.6558229576309422530304690994850
263,1.6565901007909334623213155497385
264,1.6573543325720786559937557194240
265,1.6581156750020173629931448365766
266,1.6588741498593994321569784992462
267,1.6596297786776246574168567973802
268,1.6603825827485118030092045241306
269,1.6611325831259012978952281827935
270,1.6618798006291873228165396646592
271,1.6626242558467885732242625472921
272,1.6633659691395516769277889957580
273,1.6641049606440947088583583805544
274,1.6648412502760880112473363964040
275,1.6655748577334761940793054613077
276,1.6663058024996395934543138674804
277,1.6670341038465026711539271397172
278,1.6677597808375811093403065097306
279,1.6684828523309791028379275699472
280,1.6692033369823289418489463313091
281,1.6699212532476807739107905500250
282,1.6706366193863400413489632646990
283,1.6713494534636558066572111213440
284,1.6720597733537571223251556381728
285,1.6727675967422442523598319164442
286,1.6734729411288307702310759551118
287,1.6741758238299415925179963478549
288,1.6748762619812633500177363901952
289,1.6755742725402517443659539717347
290,1.6762698722885966226825357105436
291,1.6769630778346426111677171794392
292,1.6776539056157681925414216617192
293,1.6783423719007271330854951046249
294,1.6790284927919472961899225724940
295,1.6797122842277889295327603815399
296,1.6803937619847700114403671514521
297,1.6810729416797485881384973572530
298,1.6817498387720714186309061690112
299,1.6824244685656857300473784508077
300,1.6830968462112158340501166071535
301,1.6837669867080050157196477029626
302,1.6844349049061247878366889695658
303,1.6851006155083486836722545447011
304,1.6857641330720941657987866443761
305,1.6864254720113340794329795768635
306,1.6870846465984769135129215587785
307,1.6877416709662130514674253131379
308,1.6883965591093344901092534208236
309,1.6890493248865241159221172528059
310,1.6896999820221148738912914898528
311,1.6903485441078224237848048208112
312,1.6909950246044487970219733789369
313,1.6916394368435584468819469690968
314,1.6922817940291284963302834896594
315,1.6929221092391725031109853233491
316,1.6935603954273391177503148970177
317,1.6941966654244831730819422392575
318,1.6948309319402145565430301131877
319,1.6954632075644220068079837758201
320,1.6960935047687718360230027325330
321,1.6967218359081854965802582420673
322,1.6973482132222921068685308043056
323,1.6979726488368594500433344948791
324,1.6985951547652024229626314456771
325,1.6992157429095706972732799867093
326,1.6998344250625138298808096681996
327,1.7004512129082266435631290049665
328,1.7010661180238720669285735227373
329,1.7016791518808864085822712135091
330,1.7022903258462634971726284582882
331,1.7028996511838191258999133105817
332,1.7035071390554368627168358102429
333,1.7041128005222956047646394557449
334,1.7047166465460770610563850952005
335,1.7053186879901574783280951769325
336,1.7059189356207796680977778206665
337,1.7065174001082082071667462167921
338,1.7071140920278688704038581534448
339,1.7077090218614683603075322966143
340,1.7083021999981004246755106681028
341,1.7088936367353340759479424354206
342,1.7094833422802864093624363301245
343,1.7100713267506796576991957434948
344,1.7106576001758824763121720624379
345,1.7112421724979372777699358407365
346,1.7118250535725710908901380928087
347,1.7124062531701935095159168385503
348,1.7129857809768785427475309063121
349,1.7135636465953339115436372192635
350,1.7141398595458553340228834999727
351,1.7147144292672678870594894261529
352,1.7152873651178541265282748352416
353,1.7158586763762682505685057260367
354,1.7164283722424377203334645748232
355,1.7169964618384527035011794795262
356,1.7175629542094415503265458265121
357,1.7181278583244355412715191105702
358,1.7186911830772221502129607312298
359,1.7192529372871825683660619409998
360,1.7198131297001224268414220066538
361,1.7203717689890874627046733208749
362,1.7209288637551706101390856586670
363,1.7214844225283051123245866373960
364,1.7220384537680486780280783851792
365,1.7225909658643569192744408163871
366,1.7231419671383449477688206556442
367,1.7236914658430400220836980960196
368,1.7242394701641220343429236460500
369,1.7247859882206564689507868759923
370,1.7253310280658155465460092932128
371,1.7258745976875904064937422267904
372,1.7264167050094932843997535452433
373,1.7269573578912496513672426486159
374,1.7274965641294846234815334422474
375,1.7280343314583943330980844521562
376,1.7285706675504137181550731127016
377,1.7291055800168725187286936900105
378,1.7296390764086426482475502125905
379,1.7301711642167787791758892604599
380,1.7307018508731488999367233039444
381,1.7312311437510577185186534488022
382,1.7317590501658600309425312470808
383,1.7322855773755687292581804493879
384,1.7328107325814524127788799903588
385,1.7333345229286262238163046025966
386,1.7338569555066365665760112090998
387,1.7343780373500354585567305071698
388,1.7348977754389484512594737678945
389,1.7354161766996367948972345914647
390,1.7359332480050510362183706323185
391,1.7364489961753763663890423760437
392,1.7369634279785733273175207434246
393,1.7374765501309113499113639925093
394,1.7379883692974937053697136463296
395,1.7384988920927767263875516079771
396,1.7390081250810829491449994404757
397,1.7395160747771078059938079765462
398,1.7400227476464198769805445974781
399,1.7405281501059532660027458911607
400,1.7410322885244964015603909907844
401,1.7415351692231733110275601763300
402,1.7420367984759181136668995337419
403,1.7425371825099455531307341353143
404,1.7430363275062154625462195591175
405,1.7435342395998886276337056142274
406,1.7440309248807801569011514434550
407,1.7445263893938074756392115660005
408,1.7450206391394304469192772571901
409,1.7455136800740864806772489942168
410,1.7460055181106231453697558102652
411,1.7464961591187225422276405169209
412,1.7469856089253210247040287055952
413,1.7474738733150253421847813897992
414,1.7479609580305216318158603665768
415,1.7484468687729815424181342339909
416,1.7489316112024619201326487858777
417,1.7494151909383009042921714176982
418,1.7498976135595075967659583623667
419,1.7503788846051495832992605575467
420,1.7508590095747332887804562464610
421,1.7513379939285811186307719858973
422,1.7518158430882046679302044851123
423,1.7522925624366718344318059161728
424,1.7527681573189714492009689206154
425,1.7532426330423718042519763839505
426,1.7537159948767766840342180071462
427,1.7541882480550763854107537074075
428,1.7546593977734937398297565377060
429,1.7551294491919290500890591875082
430,1.7555984074342968038129380680720
431,1.7560662775888616673081040237076
432,1.7565330647085709093272348774318
433,1.7569987738113785926495495809731
434,1.7574634098805726314295615430160
435,1.7579269778650925380022234841794
436,1.7583894826798457601477220618888
437,1.7588509292060207702000443164460
438,1.7593113222913958880773747326042
439,1.7597706667506445195527603759623
440,1.7602289673656378809926481891953
441,1.7606862288857423704306061426700
442,1.7611424560281151486371815663207
443,1.7615976534779975778956925045631
444,1.7620518258890011378699117913421
445,1.7625049778833951492372884981617
446,1.7629571140523873294521272196810
447,1.7634082389564043498222015633701
448,1.7638583571253656121169667950206
449,1.7643074730589580852258051445245
450,1.7647555912269043543248980724901
451,1.7652027160692313856626215324300
452,1.7656488519965328483277528722497
453,1.7660940033902307360892719551776
454,1.7665381746028326782742934485117
455,1.7669813699581885635712348024350
456,1.7674235937517417737779599804223
457,1.7678648502507797232171352484800
458,1.7683051436946800997348442964202
459,1.7687444782951553212254248518057
460,1.7691828582364948500439149056522
461,1.7696202876758032150514167132426
462,1.7700567707432369543623037231111
463,1.7704923115422390825850884181738
464,1.7709269141497692434825625209209
465,1.7713605826165335168089712710571
466,1.7717933209672110100422810287924
467,1.7722251332006765155486610694948
468,1.7726560232902242488443562043627
469,1.7730859951837851446740521147383
470,1.7735150528041452354692351515408
471,1.7739432000491593793192931522149
472,1.7743704407919646350898589939241
473,1.7747967788811886356181060622607
474,1.7752222181411604630022649834006
475,1.7756467623721129487680921482994
476,1.7760704153503889127436450472721
477,1.7764931808286416736667770424106
478,1.7769150625360345075402740179344
479,1.7773360641784379431478734288990
480,1.7777561894386252893398531707694
481,1.7781754419764649449925993054776
482,1.7785938254291130604583014513041
483,1.7790113434112019305314784016329
484,1.7794279995150269387157475336052
485,1.7798437973107335297003494056386
486,1.7802587403464987948668647004968
487,1.7806728321487145196415457665233
488,1.7810860762221662892108166889660
489,1.7814984760502118807305338079808
490,1.7819100350949568051072145720821
491,1.7823207567974291325821133359345
492,1.7827306445777521902557044084139
493,1.7831397018353151065104229530258
494,1.7835479319489422963168042362614
495,1.7839553382770600798683614158406
496,1.7843619241578636789098643564423
497,1.7847676929094802762257414021346
498,1.7851726478301320834856380690083
499,1.7855767921982969147112490216069
500,1.785980129272868395777298368218
501,1.786382662293311555900700595048
502,1.786784394479821256207570914562
503,1.787185329033474923415176824252
504,1.787585469136387432373377950860
505,1.787984817951860984835518711678
506,1.788383378624535714451107805769
507,1.788781154280538865905160912102
508,1.789178148027632188066383617555
509,1.789574362955355771928322736120
510,1.789969802135174386476040744811
511,1.790364468620619543450569193690
512,1.790758365447431191100533523237
513,1.791151495633697652554054064222
514,1.791543862179994485171405877586
515,1.791935468069522635075618955525
516,1.792326316268244097152489088245
517,1.792716409725016155214285362670
518,1.793105751371725987671232834292
519,1.793494344123422420615981616583
520,1.793882190878447685287588295149
521,1.794269294518565975110803887016
522,1.794655657909093078479608239126
523,1.795041283899023524413392364376
