Eigenstate,Potential Energy
1,0.500000000012934036758545471243357376
2,0.64623093773554126894299348739248827
3,0.73633760995297193565298141094524909
4,0.79966527833078644630755738128466366
5,0.8480465761804513877014952818604308
6,0.8870659982548260135212074845688192
7,0.9197208259912342645515333203090044
8,0.9477838457661805947643213715866161
9,0.9723835565856915031480612533838598
10,0.9942802125981815027300132563006839
11,1.0140093839445837107302123557972543
12,1.0319621659294516568869059988337202
13,1.0484326886185348459948027874336045
14,1.0636476496949309424077401605222226
15,1.0777854302732650178391070529106343
16,1.090988899770131142575917664223357
17,1.103374249365594560562917040991176
18,1.115037243009389791095607401040700
19,1.126057740524897376217965120186685
20,1.136503035243079754990713538847777
21,1.146430360084178061751251246855574
22,1.155888798716451999217715101791140
23,1.164920763492704311943205375120791
24,1.173563152850702816226908432824179
25,1.181848268109106698533976240870097
26,1.189804547275054198200987871199805
27,1.197457158006738393052804007117447
28,1.204828480972447000157719778271016
29,1.211938507052514284314706971752911
30,1.218805166181145598875601305049658
31,1.225444601479136584354095044706001
32,1.231871399250609466219718924549476
33,1.238098783107241089641664925838391
34,1.244138778732911063168093930745263
35,1.250002354462503317920445586731880
36,1.255699541815115510565526725502834
37,1.261239539317846149997623645830572
38,1.266630802325910584670832809328778
39,1.271881121046988338123314624912216
40,1.276997688581883496785903938864190
41,1.281987160476829580523972224593543
42,1.286855707027777724918814879017897
43,1.291609059370520659429787617597958
44,1.296252550222410950116468358867216
45,1.300791150003862406637992311735458
46,1.305229498954687270682301997644008
47,1.309571935766845190670882229226873
48,1.313822523177593623356739392309326
49,1.317985070902366759053932972599776
50,1.32206315623258735359798314374063
51,1.32606014257814888767596534873093
52,1.32997919619596025987579708728542
53,1.33382330131349510126670086028883
54,1.33759527382872666787386044417555
55,1.34129777374435377490454211636932
56,1.34493331647414866646295803659465
57,1.34850428314205874937657350266674
58,1.35201292997989693346935922504595
59,1.35546139691670137334563723047206
60,1.35885171544182089904865558818326
61,1.36218581581421819545587181505015
62,1.36546553368218178516151373296288
63,1.36869261617039598057824281374858
64,1.37186872748500549106920585844882
65,1.37499545408177653095024111907210
66,1.37807430943760893514915504534762
67,1.38110673846139149798413841036025
68,1.38409412157643658971573990898647
69,1.38703777850341743480074120152230
70,1.38993897176980316751303088581421
71,1.39279890996918807686584384167465
72,1.39561875079161321039058675809338
73,1.39839960384392549992425241799606
74,1.40114253327740072400513877209328
75,1.40384856023822552037382812257081
76,1.40651866515498410532146056113475
77,1.40915378987599295820943277899983
78,1.41175483966816093130467234502573
79,1.41432268508800542508255960509896
80,1.41685816373451714350530796168902
81,1.41936208189271660230707588815754
82,1.42183521607598411276372021412272
83,1.42427831447455622963552525841523
84,1.42669209831695736025517743034972
85,1.42907726315057595555964231023294
86,1.43143448004707883847536109242277
87,1.43376439673789975426631976480495
88,1.43606763868461484971892892487832
89,1.43834481008863428587617757836068
90,1.44059649484429597230426948238938
91,1.44282325743912595882429291394090
92,1.44502564380474172310236689359245
93,1.44720418212161233743610291441403
94,1.44935938358064656933712335960137
95,1.45149174310435881648038748884454
96,1.45360174003016095447468606788814
97,1.45568983875814383379900563229100
98,1.45775648936553928795486516963733
99,1.45980212818990004269550026788304
100,1.46182717838288857577680404222235
101,1.46383205043643667252039784643366
102,1.46581714268291184775816202724431
103,1.46778284177081889111468263834905
104,1.46972952311745752787362272216594
105,1.47165755133986411391720139853866
106,1.47356728066527451898418305649288
107,1.47545905532226727053642209505975
108,1.47733320991366679096959514619145
109,1.47919006977221796736959554848993
110,1.48102995129998087289102565836317
111,1.48285316229232859763567896728712
112,1.48466000224738171327544602659343
113,1.48645076266165735986999950091120
114,1.48822572731266218557327326148785
115,1.48998517252911792142017684597032
116,1.49172936744946004173677806943516
117,1.49345857426921824771041080726802
118,1.49517304847784648055058531636953
119,1.49687303908553645695532624901351
120,1.49855878884052287736251700491736
121,1.50023053443735019022165656107724
122,1.50188850671655188238861763653197
123,1.50353293085616107281400903140922
124,1.50516402655545350688708270119154
125,1.50678200821129448253401177883056
126,1.50838708508744604187181870122420
127,1.50997946147717018433282396410164
128,1.51155933685944126998459690861301
129,1.51312690604906870853229135555696
130,1.51468235934101264762298583210612
131,1.51622588264915996995354695676745
132,1.51775765763981293148273752537787
133,1.51927786186013099146441848833631
134,1.52078666886175510905967550038701
135,1.52228424831982567294334895366615
136,1.52377076614760154279006643147299
137,1.52524638460687437358119486122889
138,1.52671126241435878168364039385869
139,1.52816555484423680574574196799037
140,1.52960941382701966948725066638151
141,1.53104298804488529597046707874047
142,1.53246642302364194967243629347917
143,1.53387986122145973250892958576699
144,1.53528344211450448032381694735040
145,1.53667730227960441859850396581983
146,1.53806157547407206738501883363622
147,1.53943639271279568250042086004884
148,1.54080188234271556198688173544520
149,1.54215817011478701876740028319739
150,1.54350537925353366035007243175133
151,1.54484363052428688980988573828185
152,1.54617304229820192719252308870372
153,1.54749373061513930100786063094390
154,1.54880580924449570902896896621556
155,1.55010938974406248436251048101619
156,1.55140458151698953312647124076838
157,1.55269149186692579031108869926958
158,1.55397022605140801189634253186367
159,1.5552408873335615760314004001523
160,1.5565035770321796307856886617769
161,1.5577583945702390845624956493478
162,1.5590054375219129002463798178817
163,1.5602448016581335463537315995335
164,1.5614765809907622417513342426912
165,1.5627008678154125941304334045173
166,1.5639177527529791477950957342444
167,1.5651273247899180730541193471528
168,1.5663296713173226860998600752555
169,1.5675248781688388614345695869005
170,1.5687130296574600799297031858942
171,1.5698942086112423069489145433535
172,1.5710684964079765671624573911630
173,1.5722359730088546183536072883087
174,1.5733967169911635677008732148220
175,1.5745508055800434154388098124640
176,1.5756983146793372322200091836510
177,1.5768393189015672306854872408729
178,1.5779738915970658856093838817453
179,1.5791021048822885475334634858708
180,1.5802240296673384962600086366029
181,1.5813397356827270827588740777825
182,1.5824492915053966548436862731582
183,1.5835527645840293158606392288053
184,1.5846502212636657578954513280898
185,1.5857417268096559775911478173543
186,1.5868273454309628431654173658556
187,1.5879071403028423130940670740502
188,1.5889811735889157427441369783291
189,1.5900495064626580100133066591191
190,1.5911121991283171110190828305375
191,1.5921693108412844483550910023575
192,1.5932208999279321940821717563109
193,1.5942670238049360312664249996950
194,1.5953077389980966148103353901479
195,1.5963431011606776838987121282708
196,1.5973731650912745179216940734109
197,1.5983979847512271111577730918392
198,1.5994176132815922281575631288072
199,1.6004321030196871736433887446047
200,1.6014415055152192170853713359342
201,1.6024458715460116483323470283512
202,1.6034452511333398404085404081094
203,1.6044396935568879741576731695189
204,1.6054292473693380395955185382754
205,1.6064139604106010792826076819141
206,1.6073938798217036924135072249023
207,1.6083690520583356702477580093366
208,1.6093395229040729842866883141648
209,1.6103053374832818700232178640269
210,1.6112665402737155018632824246797
211,1.6122231751188106181748301104693
212,1.6131752852396943235860400563513
213,1.6141229132469054464201851687429
214,1.6150661011518454269503213858947
215,1.6160048903779579426979121659196
216,1.6169393217716512252254558663179
217,1.6178694356129670274580825320530
218,1.6187952716260052139764756115289
219,1.6197168689891072472095124715502
220,1.6206342663448110776467265309205
221,1.6215475018095753403526166343255
222,1.6224566129832900551403564609259
223,1.6233616369585673912280967549614
224,1.6242626103298275556679126010380
225,1.6251595692021823620816634996343
226,1.6260525492001200176363092878884
227,1.6269415854759997710967104540335
228,1.6278267127183582321467684244843
229,1.6287079651600345141136819748566
230,1.6295853765861188863231473805778
231,1.6304589803417267253393842455266
232,1.6313288093396081739939986890948
233,1.6321948960675884936912790468446
234,1.6330572725958552560388166239866
235,1.6339159705840855448862762860492
236,1.6347710212884228675232496570243
237,1.6356224555683073951455113193061
238,1.6364703038931612635828296743807
239,1.6373145963489343698498742161235
240,1.6381553626445128179182717433579
241,1.6389926321179942950390503771190
242,1.6398264337428332345458606146719
243,1.6406567961338597958916355782523
244,1.6414837475531743501343925657354
245,1.6423073159159218439618810102376
246,1.6431275287959485608013825227448
247,1.6439444134313426607787757192670
248,1.6447579967298660800592725508363
249,1.6455683052742727580635322170270
250,1.6463753653275235766578187362244
251,1.6471792028378959107231125889713
252,1.6479798434439905879960255889653
253,1.6487773124796413297775146669303
254,1.6495716349787263287592101421489
255,1.6503628356798858433896800661456
256,1.6511509390311458935400450421665
257,1.6519359691944544482061273110099
258,1.6527179500501265492985427230215
259,1.6534969052012051743638816257856
260,1.6542728579777382239340126121149
261,1.6550458314409719465532946951214
262,1.6558158483874655262083074560543
263,1.6565829313531256820394077689365
264,1.6573471026171667304845680231334
265,1.6581083842059946343802941410517
266,1.6588667978970172060492452053692
267,1.6596223652223836769037423384971
268,1.6603751074726536665612512724728
269,1.6611250457003998206680992097749
270,1.6618722007237398408525733374197
271,1.6626165931298071900407094225748
272,1.6633582432781544519756355707354
273,1.6640971713040967873314899042356
274,1.6648333971219926947159074172198
275,1.6655669404284659514169365816594
276,1.6662978207055670115228448877879
277,1.6670260572238813447049746118838
278,1.6677516690455764695872425176694
279,1.6684746750273991841468407885670
280,1.6691950938236150859916759996926
281,1.6699129438888982713175356433001
282,1.6706282434811687087930298040771
283,1.6713410106643805007983671462516
284,1.6720512633112581885329673051984
285,1.6727590191059879082319948817046
286,1.6734642955468594232169616657647
287,1.6741671099488640910510511253836
288,1.6748674794462451675547898201458
289,1.6755654209950050957259114712407
290,1.6762609513753705120701554636465
291,1.6769540871942128112629784006485
292,1.6776448448874271540280759427619
293,1.6783332407222738239869694295403
294,1.6790192907996769703734141284466
295,1.6797030110564828237373300862955
296,1.6803844172676849701773467787662
297,1.6810635250486066158061789456420
298,1.6817403498570491581796014107087
299,1.6824149069954038675235381387182
300,1.6830872116127284283416135088383
301,1.6837572787067887528178006430526
302,1.6844251231260681589233800030260
303,1.6850907595717410863337018881977
304,1.6857542025996149276606222674561
305,1.6864154666220414035034629638583
306,1.6870745659097967445148900913642
307,1.6877315145939278624313772776347
308,1.6883863266675719884932521537163
309,1.6890390159877458685160492497618
310,1.6896895962771048497559791339310
311,1.6903380811256754544687840653079
312,1.6909844839925589532903143773387
313,1.6916288182076073311845940718801
314,1.6922710969730734502288413635158
315,1.6929113333652347288748389534711
316,1.6935495403359917133251411071307
317,1.6941857307144390796252065982778
318,1.6948199172084144177127869580387
319,1.6954521124060219389828383473297
320,1.6960823287771311086224821177869
321,1.6967105786748541216466687302061
322,1.6973368743369983370615902224234
323,1.6979612278874971841914489292205
324,1.6985836513378185183042015591031
325,1.6992041565883521875136948904023
326,1.6998227554297750481806029452942
327,1.7004394595443962495642255553672
328,1.7010542805074799769155217989431
329,1.7016672297885506278662881199730
330,1.7022783187526768537764129261706
331,1.7028875586617359046115368401546
332,1.7034949606756593385711531901718
333,1.7041005358536604750005513251684
334,1.7047042951554417745882163696033
335,1.7053062494423864617591751151609
336,1.7059064094787304472939876453228
337,1.7065047859327174233969986835161
338,1.7071013893777381900439605041125
339,1.7076962302934502770937334462543
340,1.7082893190668839534820446018900
341,1.7088806659935303370526703764895
342,1.7094702812784141021532690109802
343,1.7100581750371504227625936878809
344,1.7106443572969861448337692420763
345,1.7112288379978270071654871370061
346,1.7118116269932483855735346280662
347,1.7123927340514931256987959386293
348,1.7129721688564532761533011634444
349,1.7135499410086392669065344610905
350,1.7141260600261340752298609569778
351,1.7147005353455344667808428044129
352,1.7152733763228789941701458527943
353,1.7158445922345620373671412761822
354,1.7164141922782353003986591257776
355,1.7169821855736971296029422682163
356,1.7175485811637678632057805913589
357,1.7181133880151544512420211337105
358,1.7186766150193035898084277611235
359,1.7192382709932391147717974121027
360,1.7197983646803925928366711308316
361,1.7203569047514188548273497084906
362,1.7209138998050029527699596167916
363,1.7214693583686531363738224051258
364,1.7220232888994848728923089761759
365,1.7225756997849941467169462684549
366,1.7231265993438189163613220298714
367,1.7236759958264916208323554205536
368,1.7242238974161795241053741579748
369,1.7247703122294175302359954138164
370,1.7253152483168291822723519685771
371,1.7258587136638386982647884182151
372,1.7264007161913730008406624041543
373,1.7269412637565537070485623074251
374,1.7274803641533833869400535309463
375,1.7280180251134167824474577259063
376,1.7285542543064284427622469526782
377,1.7290890593410685654134596340547
378,1.7296224477655102104465512882933
379,1.7301544270680897274933492462858
380,1.7306850046779371524865709187019
381,1.7312141879655994494436971940096
382,1.7317419842436537154788663065324
383,1.7322684007673150236929531825255
384,1.7327934447350338676313388044603
385,1.7333171232890868285520019413127
386,1.7338394435161611241449321296382
387,1.7343604124479287880262061244911
388,1.7348800370616144167917713334322
389,1.7353983242805571593027860007417
390,1.7359152809747641372934792743823
391,1.7364309139614556142268442277630
392,1.7369452300056055207592391250186
393,1.7374582358204748102836839289211
394,1.7379699380681362256318902314250
395,1.7384803433599933337903466158903
396,1.7389894582572934794803954170286
397,1.7394972892716342874922418359849
398,1.7400038428654637218892519595707
399,1.7405091254525722678552216885124
400,1.7410131433985815361236085619109
401,1.7415159030214253388896716731811
402,1.7420174105918239824029694521359
403,1.7425176723337545969610596371231
404,1.7430166944249153973747154602355
405,1.7435144829971813393306486820378
406,1.7440110441370572806667922646009
407,1.7445063838861257642605638284854
408,1.7450005082414869257046538733430
409,1.7454934231561933868273436456574
410,1.7459851345396826495160079642265
411,1.7464756482582012498417910465819
412,1.7469649701352242550547476706840
413,1.7474531059518711824888663801285
414,1.7479400614473147642025250818148
415,1.7484258423191868412964264573030
416,1.7489104542239778175220358546914
417,1.7493939027774325206470738565255
418,1.7498761935549396347937315411414
419,1.7503573320919189822411811419859
420,1.7508373238842016365937778087701
421,1.7513161743884068194782380290220
422,1.7517938890223148623514631249506
423,1.7522704731652340695385826960886
424,1.7527459321583650962048749734044
425,1.7532202713051592206002189093491
426,1.7536934958716741173950202167200
427,1.7541656110869246167152458850132
428,1.7546366221432284625424601207051
429,1.7551065341965509828437579791212
430,1.7555753523668415335147880781587
431,1.7560430817383692197664035401759
432,1.7565097273600550444458327823945
433,1.7569752942457958211651761481670
434,1.7574397873747909501498466946828
435,1.7579032116918598804563424566342
436,1.7583655721077581595241052656041
437,1.7588268734994902314054375531658
438,1.7592871207106179657111160418849
439,1.7597463185515655985495071482486
440,1.7602044717999221566453741237029
441,1.7606615852007385244632702578238
442,1.7611176634668227179539453975983
443,1.7615727112790330125901372880815
444,1.7620267332865635450339596406414
445,1.7624797341072317190644879907120
446,1.7629317183277584400849610694321
447,1.7633826905040483473474224622469
448,1.7638326551614632620649178354908
449,1.7642816167950966918844827750818
450,1.7647295798700415441298518612378
451,1.7651765488216585508754009591515
452,1.7656225280558382471665906458607
453,1.7660675219492622454249739785623
454,1.7665115348496601949527489206244
455,1.7669545710760660503742861128940
456,1.7673966349190689459790589081238
457,1.7678377306410633716372675255429
458,1.7682778624764950461485170424306
459,1.7687170346321050019122436124935
460,1.7691552512871715232258037579710
461,1.7695925165937477878976297044292
462,1.7700288346768984251883118088393
463,1.7704642096349335938119105271793
464,1.7708986455396387408652086165292
465,1.7713321464365040103808729087388
466,1.7717647163449504321620683166799
467,1.7721963592585521713748398731427
468,1.7726270791452598544982520299928
469,1.7730568799476174482886804521183
470,1.7734857655829802162574311931011
471,1.7739137399437280197266244103133
472,1.7743408068974782610328218116880
473,1.7747669702872938197380836536991
474,1.7751922339318934857986368554078
475,1.7756166016258538124021284465151
476,1.7760400771398149022345148861844
477,1.7764626642206804601274251757419
478,1.7768843665918167880290139634490
479,1.7773051879532496116356020289007
480,1.7777251319818591332174593577070
481,1.7781442023315718614659300611496
482,1.7785624026335527870993820056614
483,1.7789797364963932841752965418960
484,1.7793962075062975568125841658913
485,1.7798118192272691081482846788000
486,1.7802265752012918162691147363325
487,1.7806404789485124658466044641131
488,1.7810535339674193319074159639666
489,1.7814657437350200437828045330470
490,1.7818771117070165922250294002518
491,1.7822876413179796138333060831020
492,1.7826973359815205408334483435735
493,1.7831061990904615910756413144553
494,1.7835142340170046921426683289387
495,1.7839214441128975319149288349560
496,1.7843278327095999798610718924491
497,1.7847334031184465644203422281298
498,1.7851381586308089515729438876319
499,1.7855421025182559217594167242090
500,1.785945238032712975458564228313
501,1.786347568406617313269419698890
502,1.786749096853075645481495005134
503,1.787149826566016299059080622894
504,1.787549760720343465672909192268
505,1.787948902472086438036269511260
506,1.788347254958549564420948393310
507,1.788744821298460769163797781030
508,1.789141604592118278902915781930
509,1.789537607921533785209139328106
510,1.789932834350578096621992767658
511,1.790327286925122510935525607954
512,1.790720968673179807697256563718
513,1.791113882605043476423439526095
514,1.791506031713425856759067853438
515,1.791897418973595564646614708086
516,1.792288047343512414657612677050
517,1.792677919763960913043094724979
518,1.793067039158684106706599100044
519,1.793455408434514569860780653248
520,1.793843030481505385189062530600
521,1.794229908173057914558575141802
522,1.794616044366050635303392012750
523,1.795001441900965479053289968394
