Eigenstate,Potential Energy
1,0.500000000163086112622049554256381809
2,0.64623093871566156816954238425951220
3,0.73633761283202267202474257569490405
4,0.79966528432759584862928277648942230
5,0.8480465865683190023495359501667846
6,0.8870660143294412440752745064588598
7,0.9197208490588712907866497155201509
8,0.9477838771387894369527754604044933
9,0.9723835975786284784407308828439395
10,0.9942802645290694229080648017316432
11,1.0140094481327039292565265996256606
12,1.0319622436954071569638503814578426
13,1.0484327812840609032178756701214761
14,1.0636477585827907359389811299108359
15,1.0777855567071965088041154798957388
16,1.090989045074826175688214849113374
17,1.103374414866698946514279274500906
18,1.115037430033517479400182763056438
19,1.126057950399654354809577303100249
20,1.136503269297094832065401087935428
21,1.146430619647138627653823699653682
22,1.155889085119143467085720276870024
23,1.164921078067052328673712718402505
24,1.173563496929817597979181921189177
25,1.181848643027329024176670429830689
26,1.189804954368002718647030143970357
27,1.197457598611358002442185901954868
28,1.204828956427058078023465441208891
29,1.211939018696862663860012520085919
30,1.218805715356453150415158133821839
31,1.225445189528152328301817662050026
32,1.231872027517661149130449188532101
33,1.238099452938287171407932316857343
34,1.244139491475593074718203366209622
35,1.250003111466198557509320930759331
36,1.255700344430990053609594008390979
37,1.261240388898908152830503508627016
38,1.266631700227063866920399728289623
39,1.271882068625086231882373417094427
40,1.276998687195782953555631053927378
41,1.281988211487445529193971728121690
42,1.286856811798137675919607962223826
43,1.291610219265819551736840177439633
44,1.296253766610066239064840154114509
45,1.300792424253569391574992248068190
46,1.305230832438474662382310569097299
47,1.309573329859130919193312812536557
48,1.313823979255240887671306064788527
49,1.317986590344740320306441975515943
50,1.32206474042161007436164045528143
51,1.32606179289835851994127709329550
52,1.32998091403456648488660515102078
53,1.33382508806043682462014784790687
54,1.33759713087672957357535987401039
55,1.34129970248898814231072575433922
56,1.34493531831388745426147744988709
57,1.34850635947833595094505370052445
58,1.35201508221716620813147062047602
59,1.35546362646249495820086162149791
60,1.35885402370680880619857554740689
61,1.36218820421226769958419272298032
62,1.36546800363041720655023231301445
63,1.36869516908925876875880732453698
64,1.37187136479831461441729041534207
65,1.37499817721678917763717346326977
66,1.37807711982508153096159226135974
67,1.38110963753564104661856560872936
68,1.38409711077540234124569102082269
69,1.38704085926872288810345528799036
70,1.38994214554681841252734015061462
71,1.39280217820709248263841084987393
72,1.39562211494345846494881991055903
73,1.39840306536669900809649392408514
74,1.40114609363208936938826528610481
75,1.40385222088987979772874716719422
76,1.40652242757278262975517525570622
77,1.40915765553330735758198472423746
78,1.41175881004262112837783172095426
79,1.41432676166156531600625001286290
80,1.41686234799352067931635669051903
81,1.41936637532796428019514585540476
82,1.42183962018279988393867713986111
83,1.42428283075285483071146082824173
84,1.42669672827131207514751271522311
85,1.42908200829028681497391334717370
86,1.43143934188624126414899150107063
87,1.43376937679547365520918391086066
88,1.43607273848449417778294347945646
89,1.43835003115971705807035887569644
90,1.44060183872055476735890341013038
91,1.44282872565967889559654081533660
92,1.44503123791392392850474857558486
93,1.44720990366904791166079760161818
94,1.44936523412132105624135809326699
95,1.45149772419869218709172642990238
96,1.45360785324408111167040059009359
97,1.45569608566316064631105959793201
98,1.45776287153881916194917909127749
99,1.45980864721434103927565800047539
100,1.46183383584719608286275522397827
101,1.46383884793519963965684030910874
102,1.46582408181667959251181642169556
103,1.46778992414617848582663682129878
104,1.46973675034711177564215879918554
105,1.47166492504271012279610087059468
106,1.47357480246648288349465654851254
107,1.47546672685336186970492087530042
108,1.47734103281260521222009151405665
109,1.47919804568347256571752889229687
110,1.48103808187462047500632874326516
111,1.48286144918810086046493795604583
112,1.48466844712879614703830166287040
113,1.48645936720006902537137875219416
114,1.48823449318635607590242945922503
115,1.48999410142339403823913506591152
116,1.49173846105671917649446951358436
117,1.49346783428904847825471067461921
118,1.49518247661711039374973305730197
119,1.49688263705845910808047490095945
120,1.49856855836878049712748142285741
121,1.50024047725015965052173648792347
122,1.50189862455076093192924635862139
123,1.50354322545633935397151526337275
124,1.50517449967398436529766636664193
125,1.50679266160846758106468401831398
126,1.50839792053155079078633093856639
127,1.50999048074458999962828276679864
128,1.51157054173474867204027849784942
129,1.51313829832512127338075082475540
130,1.51469394081904982332488081034504
131,1.51623765513890077073256855058009
132,1.51776962295955452245566141827769
133,1.51929002183684817698054526438315
134,1.52079902533120073785050661826131
135,1.52229680312663197347023330178143
136,1.52378352114538240236792073821966
137,1.52525934165832857505272542330430
138,1.52672442339137421161581448377223
139,1.52817892162799564832192308650603
140,1.52962298830810460047510737617145
141,1.53105677212338669135362376512950
142,1.53248041860926612374817080979411
143,1.53389407023363822047097631700306
144,1.53529786648250438057077484485683
145,1.53669194394263981023218275573929
146,1.53807643638141651859469650781350
147,1.53945147482389586576075567410295
148,1.54081718762730599223531147667055
149,1.54217370055300593097061617080439
150,1.54352113683604004311368580246677
151,1.54485961725237869193919442839877
152,1.54618926018393545436659909686844
153,1.54751018168144981999110536568002
154,1.54882249552531927710948782556776
155,1.55012631328445902197733773552696
156,1.55142174437326715791022487720745
157,1.55270889610676643108474956824014
158,1.55398787375399432139982499473378
159,1.5552587805897051614942197076383
160,1.5565217179444506217284046974323
161,1.5577767852530970575239658557373
162,1.5590240801018391804399376490586
163,1.5602636982737649065700509280594
164,1.5614957337930260191463532404788
165,1.5627202789676632458631665219501
166,1.5639374244311362668123934324061
167,1.5651472591826058856584802123270
168,1.5663498706260110532826888484544
169,1.5675453446079858063085430564248
170,1.5687337654546558639537853592498
171,1.5699152160073550780041699871584
172,1.5710897776572996029111404330633
173,1.5722575303792551886924884707485
174,1.5734185527642334405093389769897
175,1.5745729220512510302150295567065
176,1.5757207141581815666034344622825
177,1.5768620037117333852723151910275
178,1.5779968640765824128877063602527
179,1.5791253673836865511910793287266
180,1.5802475845578125275534685730871
181,1.5813635853442978610749288483087
182,1.5824734383350756400378854743364
183,1.5835772109939851604189340811091
184,1.5846749696813926674344945926171
185,1.5857667796781440086948129042035
186,1.5868527052088701680411623623216
187,1.5879328094646694810349545672005
188,1.5890071546251819688901525812454
189,1.5900758018800795224247546991434
190,1.5911388114499875876049633874228
191,1.5921962426068575757399122721325
192,1.5932481536938063810450675094839
193,1.5942946021444413099500043987014
194,1.5953356445016837634692248564734
195,1.5963713364361096055442994538720
196,1.5974017327638199098160301651842
197,1.5984268874638564607198591125680
198,1.5994468536951761714661845467834
199,1.6004616838131972533571155147325
200,1.6014714293859310772460928833522
201,1.6024761412097107041802577836118
202,1.6034758693245294620134747181424
203,1.6044706630290002233563647421593
204,1.6054605708949470004312460041785
205,1.6064456407816388228579462839907
206,1.6074259198496789178021309616340
207,1.6084014545745550638574987645180
208,1.6093722907598653408296346612883
209,1.6103384735502250190290733929484
210,1.6113000474438660844675276350094
211,1.6122570563049367597252861295063
212,1.6132095433755112484423593945921
213,1.6141575512873140821689172256632
214,1.6151011220731740461213895260104
215,1.6160402971782068909549168729842
216,1.6169751174707407859036634769565
217,1.6179056232529884732466681092741
218,1.6188318542714750974832637706276
219,1.6197538497272249831100595881775
220,1.6206716482857198701009891154407
221,1.6215852880866265103784703155920
222,1.6224948067533108236587212796886
223,1.6234002414021321745433451248233
224,1.6243016286515328312178783954117
225,1.6251990046309251633888800468743
226,1.6260924049893801185089609998209
227,1.6269818649041256202713628367462
228,1.6278674190888567007360392577737
229,1.6287491018018645194148872400932
230,1.6296269468539889567656249748832
231,1.6305009876163965725973585167300
232,1.6313712570281943395681197142915
233,1.6322377876038741385656718819759
234,1.6331006114406041633573858879243
235,1.6339597602253604069530675762194
236,1.6348152652419079298290937923137
237,1.6356671573776355315491729896939
238,1.6365154671302455582335360604564
239,1.6373602246143042829305482536923
240,1.6382014595676550138161488987057
241,1.6390392013576982131104315607595
242,1.6398734789875414842382296832505
243,1.6407043211020234596230579263730
244,1.6415317559936132789989051620469
245,1.6423558116081900330409948098582
246,1.6431765155507046926138208935524
247,1.6439938950907259071878926860335
248,1.6448079771678772547929935610921
249,1.6456187883971609138769951479007
250,1.6464263550741781430876215811087
251,1.6472307031802444703497906682102
252,1.6480318583874023911385412623624
253,1.6488298460633366496073184959643
254,1.6496246912761917609278484457926
255,1.6504164187992956564216013656923
256,1.6512050531157895384541742241158
257,1.6519906184231703380929857363086
258,1.6527731386377422218960948145335
259,1.6535526373989839530505757712864
260,1.6543291380738324949889218679410
261,1.6551026637608831730226685841743
262,1.6558732372945111212705943602700
263,1.6566408812489128673724866612440
264,1.6574056179420735078194446450437
265,1.6581674694396580011661271982725
266,1.6589264575588287489681324216317
267,1.6596826038719926798547216489395
268,1.6604359297104778726840689383728
269,1.6611864561681439910051417871370
270,1.6619342041049222553487168158148
271,1.6626791941502942397610626195066
272,1.6634214467067034746793775069910
273,1.6641609819529073018845385135253
274,1.6648978198472661932508786872070
275,1.6656319801309744116614308087156
276,1.6663634823312302953227245019708
277,1.6670923457643536524629739586098
278,1.6678185895388420241303115333786
279,1.6685422325583773214196536009555
280,1.6692632935247749339673902237044
281,1.6699817909408832026051414109397
282,1.6706977431134307566202311785531
283,1.6714111681558249323567062917620
284,1.6721220839908984340914562158257
285,1.6728305083536110489674267389197
286,1.6735364587937024453563309448011
287,1.6742399526783011187116110522251
288,1.6749410071944858915653344153008
289,1.6756396393518046207558965978975
290,1.6763358659847508495603810452088
291,1.6770297037551962509656103807332
292,1.6777211691547817524144796295313
293,1.6784102785072712533856661098299
294,1.6790970479708629784501036335271
295,1.6797814935404605588362325779377
296,1.6804636310499114341170897325652
297,1.6811434761742025119608820700141
298,1.6818210444316224090726594295478
299,1.6824963511858870827623524965413
300,1.6831694116482306104725724748759
301,1.6838402408794615356464255892554
302,1.6845088537919868799858035064923
303,1.6851752651518010025572064000559
304,1.6858394895804428908061389795489
305,1.6865015415569233197476807858810
306,1.6871614354196211505202482323017
307,1.6878191853681459584614915360408
308,1.6884748054651744775857350402151
309,1.6891283096382569594070306069115
310,1.6897797116815937901947144806222
311,1.6904290252577859707547824006033
312,1.6910762638995569813311273371638
313,1.6917214410114474341022704124235
314,1.6923645698714843275707873843547
315,1.6930056636328242327974784840260
316,1.6936447353253717977286175530022
317,1.6942817978573711191582216087040
318,1.6949168640169753448078641689756
319,1.6955499464737916586768205242018
320,1.6961810577804016628465041193606
321,1.6968102103738610869567779370335
322,1.6974374165771749524443275902281
323,1.6980626886007517186141469639334
324,1.6986860385438354011194828132229
325,1.6993074783959174386644367313705
326,1.6999270200381265594259275321558
327,1.7005446752445994826401285858405
328,1.7011604556838296597068912137483
329,1.7017743729199990452852976163415
330,1.7023864384142893461525145684847
331,1.7029966635261742030035740391972
332,1.7036050595146933835432114576243
333,1.7042116375397093830688635144636
334,1.7048164086631446347656473439909
335,1.7054193838502036634257761999292
336,1.7060205739705762600138776129318
337,1.7066199897996245693236347762506
338,1.7072176420195551702059338307612
339,1.7078135412205722341757501623366
340,1.7084076979020178757207963412808
341,1.7090001224734954306028230838850
342,1.7095908252559781827303990457253
343,1.7101798164829032016020592037852
344,1.7107671063012503090413438610046
345,1.7113527047726080203782980860927
346,1.7119366218742239615632348896227
347,1.7125188675000433551548364949377
348,1.7130994514617324153918905105340
349,1.7136783834896902267422037577517
350,1.7142556732340466787159635295938
351,1.7148313302656485760278274877971
352,1.7154053640770336390290082210667
353,1.7159777840833917124584230500122
354,1.7165485996235146318101658648421
355,1.7171178199607351486268817355862
356,1.7176854542838531617856148647389
357,1.7182515117080525323926109178545
358,1.7188160012758077662110658656999
359,1.7193789319577763500941224159644
360,1.7199403126536857231288708694525
361,1.7205001521932066716675952168932
362,1.7210584593368196757272922672229
363,1.7216152427766688498874763778381
364,1.7221705111374085519271200320778
365,1.7227242729770409465666634678328
366,1.7232765367877434548466665011534
367,1.7238273109966890359449594599498
368,1.7243766039668561469528434815357
369,1.7249244239978330720425394027271
370,1.7254707793266123952583467418445
371,1.7260156781283785335780624743921
372,1.7265591285172873524120203734729
373,1.7271011385472378984176992999423
374,1.7276417162126406288437228570859
375,1.7281808694491729023682352241513
376,1.7287186061345332638704268253414
377,1.7292549340891863914472443188565
378,1.7297898610771019552588001346146
379,1.7303233948064893133372704841970
380,1.7308555429305248897789724797765
381,1.7313863130480752028672200788984
382,1.7319157127044127570188722862848
383,1.7324437493919295727254196161268
384,1.7329704305508434216339834440999
385,1.7334957635699004955945161183660
386,1.7340197557870752801969978951534
387,1.7345424144902634985343105858666
388,1.7350637469179721830718030579324
389,1.7355837602600076763298486063969
390,1.7361024616581588806780189811322
391,1.7366198582068762107416511163710
392,1.7371359569539499990279422019204
393,1.7376507649011859763894906148187
394,1.7381642890050765627569115925539
395,1.7386765361774709858267928343543
396,1.7391875132862440461859375119232
397,1.7396972271559633335271957163463
398,1.7402056845685550842964985389488
399,1.7407128922639674365981695364218
400,1.7412188569408355805895813155402
401,1.7417235852571450601417271512241
402,1.7422270838308941869206521682724
403,1.7427293592407586130334352341196
404,1.7432304180267561907207722476934
405,1.7437302666909098304076754167015
406,1.7442289116979147229881092612945
407,1.7447263594758073115105569226944
408,1.7452226164166337960066442737747
409,1.7457176888771213259224891923070
410,1.7462115831793547014089114124692
411,1.7467043056114531644384328342111
412,1.7471958624282511981598781660778
413,1.7476862598519847650540391206436
414,1.7481755040729797757239049154622
415,1.7486636012503474576742857845168
416,1.7491505575126834574050992575620
417,1.7496363789587739473358363907205
418,1.7501210716583063441460513572345
419,1.7506046416525893819270988630407
420,1.7510870949552780095484554282370
421,1.7515684375531075758753414377411
422,1.7520486754066371211224949155117
423,1.7525278144510001738502673100740
424,1.7530058605966672588775478564305
425,1.7534828197302171168084760657436
426,1.7539586977151208948584824771239
427,1.7544335003925374797658598605829
428,1.7549072335821207079003576241223
429,1.7553799030828431236779652755358
430,1.7558515146738299466515043600023
431,1.7563220741152115910362925949153
432,1.7567915871489927716728086902385
433,1.7572600594999344658354989361257
434,1.7577274968764608102172475395287
435,1.7581939049715797910852973014673
436,1.7586592894638267191174547969536
437,1.7591236560182298004285135177340
438,1.7595870102872979994105739010664
439,1.7600493579120331555852122028971
440,1.7605107045229687781928732003648
441,1.7609710557412341070825042083826
442,1.7614304171796485133576047866555
443,1.7618887944438474835464858064953
444,1.7623461931334364947565232304569
445,1.7628026188431838975384712025867
446,1.7632580771642457213354319004323
447,1.7637125736854315736931460267639
448,1.7641661139945069723978681189843
449,1.7646187036795421989869492487622
450,1.7650703483303022097192925184048
451,1.7655210535396876358012570869339
452,1.7659708249052223980050814302343
453,1.7664196680305965284735420135174
454,1.7668675885272636160987076707480
455,1.7673145920160997170745887081093
456,1.7677606841291224493117942681692
457,1.7682058705112786068893260583908
458,1.7686501568223005655068349469852
459,1.7690935487386381199978355757782
460,1.7695360519554697940108175331681
461,1.7699776721887961602701055117509
462,1.7704184151776233861522807922437
463,1.7708582866862409467506436840581
464,1.7712972925065973674901977665578
465,1.7717354384607840569585698640987
466,1.7721727304036308741396665683514
467,1.7726091742254196786937023776096
468,1.7730447758547283392447335301755
469,1.7734795412614056662684421998083
470,1.7739134764596933576934002821338
471,1.7743465875114984089010309250539
472,1.7747788805298301415317322822633
473,1.7752103616824077874357514242618
474,1.7756410371954575073996333931961
475,1.7760709133577000006850459084992
476,1.7764999965245543840708255952511
477,1.7769282931225628511083396354313
478,1.7773558096540560672237481048651
479,1.7777825527020746695884627971981
480,1.7782085289355650537100259284352
481,1.7786337451148672115776043463007
482,1.7790582080975189616061315165384
483,1.7794819248443944240323331083418
484,1.7799049024262038969458341205602
485,1.7803271480303829837971951053273
486,1.7807486689683941652082953149716
487,1.7811694726834787227975171572740
488,1.7815895667588873618516597183335
489,1.7820089589266294701325100005878
490,1.7824276570767788410219633494479
491,1.7828456692673815474354245945488
492,1.7832630037350120632285381507355
493,1.7836796689060294838708632385667
494,1.7840956734085916463651311384075
495,1.7845110260854873914776166535881
496,1.7849257360078581861323565343738
497,1.7853398124898793362625416639524
498,1.7857532651044865809519701337336
499,1.7861661037002355322445173985726
500,1.786578338419395105117599861169
501,1.786989979717379789391730849972
502,1.787401038383648597837663378243
503,1.787811525564195149454071205269
504,1.788221452785783852687697913858
505,1.788630831982088013140581490665
506,1.789039675521916393642146049647
507,1.789447996239726934596393179960
508,1.789855807468650757055050304418
509,1.790263123076273716740395428060
510,1.790669957503459517225573476896
511,1.791076325806518352186902248165
512,1.791482243703072952239084001073
513,1.791887727622011004050771195482
514,1.792292794757963293195652874883
515,1.792697463130801838102016538886
516,1.793101751650713350514786478794
517,1.793505680189478791266033600478
518,1.793909269658673975439996333405
519,1.794312542095597423961922975690
520,1.794715520757848976665058590210
521,1.795118230227605521645463668765
522,1.795520696526797431072830762807
523,1.795922947244555908012539840829
