Eigenstate,Potential Energy
1,0.500000000107225506594096912717730834
2,0.64623093835102900089261070102062467
3,0.73633761176092731624969581407237945
4,0.79966528209657912069122676241590609
5,0.8480465827036368471368668092384974
6,0.8870660083489921778749528997735332
7,0.9197208404765810774398071885880352
8,0.9477838654664302031301954919477968
9,0.9723835823266558942589775829366254
10,0.9942802452070395781571626749251144
11,1.0140094242494923366156831735754809
12,1.0319622147593269091862177800949333
13,1.0484327468029259162662025068359592
14,1.0636477180639473757252083278590568
15,1.0777855096575361308878537978673947
16,1.090988991000785661776309051240868
17,1.103374353274253419191327244507901
18,1.115037360428167757379758480880468
19,1.126057872286410771010213178696240
20,1.136503182180458471620240897931021
21,1.146430523031080692387256841737626
22,1.155888978507083249423416933846190
23,1.164920960961834131791647752973333
24,1.173563368833686841276662538367766
25,1.181848503441907706484772680057983
26,1.189804802794264365245913820496296
27,1.197457434549602189208486918882488
28,1.204828779376884602518671644397982
29,1.211938828157145416052721394212435
30,1.218805510825313723101557667382813
31,1.225444970502933397857941410120843
32,1.231871793494899650106826544561933
33,1.238099203413687283040151606370174
34,1.244139225943999033235231336380018
35,1.250002829421567304859658613989796
36,1.255700045366363730664735241721970
37,1.261240072306386443097924676398745
38,1.266631365597776195180721949997755
39,1.271881715449163820864414623762173
40,1.276998314962330740709358123274762
41,1.281987819684513944761461438792682
42,1.286856399912694282797627982428690
43,1.291609786783720547040149929738879
44,1.296253313016027816812376731618912
45,1.300791949031138965512752761013842
46,1.305230335070001947611799764268612
47,1.309572809825738870981276851668750
48,1.313823436036796495565327282891429
49,1.317986023419825255464481377694216
50,1.32206414926749118781554413770867
51,1.32606117699095818934964932110856
52,1.32998027284843280718734561300844
53,1.33382442106871365186403249284975
54,1.33759643755112638910652152397811
55,1.34129898229974977435569396133364
56,1.34493457072976362389356322834657
57,1.34850558396655065130402852266520
58,1.35201427824338691169784793675434
59,1.35546279349080164884945853466364
60,1.35885316119966283268566110667277
61,1.36218731163048044705613402949404
62,1.36546708043311858259823839826104
63,1.36869421473386550048390714935854
64,1.37187037874049835291135575907254
65,1.37499715891044440622897589535496
66,1.37807606872229327352193694203075
67,1.38110855308665237216444519572418
68,1.38409599242858166103030029335541
69,1.38703970647053104132627512193916
70,1.38994095774177553674686174616766
71,1.39280095483774466491786668016620
72,1.39562085545034416971423556195516
73,1.39840176918831527763441826186162
74,1.40114476020485779285917903021742
75,1.40385084964811224451991826844859
76,1.40652101794864674294509108685330
77,1.40915620695679180323554634978733
78,1.41175732194150059633862970177304
79,1.41432523346136526779856470602089
80,1.41686077911748183871568945787999
81,1.41936476519700686197091134757194
82,1.42183796821548755621767746449562
83,1.42428113636535840635408092827396
84,1.42669499087737292747177852590479
85,1.42908022730118001310465602033746
86,1.43143751671073842321062486158865
87,1.43376750683980549652075285779542
88,1.43607082315231279415366671892694
89,1.43834806985205787923229084923644
90,1.44059983083579822051041233723526
91,1.44282667059351175596685198066443
92,1.44502913505930035478492997741806
93,1.44720775241615016108068009721583
94,1.44936303385751987400454952619344
95,1.45149547430850686481307254260080
96,1.45360555310913920939041844003785
97,1.45569373466215737259111822806430
98,1.45776046904747640647973613978212
99,1.45980619260536605235585584426085
100,1.46183132849023979603560994839798
101,1.46383628719681462170803566655171
102,1.46582146706027763496286741724079
103,1.46778725473198781197443435747134
104,1.46973402563213386711640633923145
105,1.47166214438067615752495807186073
106,1.47357196520780977888524445559537
107,1.47546383234510792476079650338123
108,1.47733808039842534223149964386019
109,1.47919503470357312307229680744756
110,1.48103501166571364957971174061753
111,1.48285831908335865295559792233491
112,1.48466525645780390852452869126462
113,1.48645611528877855626714729487495
114,1.48823117935703827739659419950699
115,1.48999072499459110920258158896611
116,1.49173502134319634874017464845348
117,1.49346433060174528293396070702416
118,1.49517890826309145156337271140597
119,1.49687900334086443587887639239765
120,1.49856485858677532336495428245161
121,1.50023671069888373192117590253348
122,1.50189479052127736360121147661809
123,1.50353932323558286511787947524665
124,1.50517052854470909251412024667413
125,1.50678862084919431113767028434410
126,1.50839380941651366475986154463386
127,1.50998629854368266979320967241551
128,1.51156628771346990337361484237828
129,1.51313397174451998083480891934159
130,1.51468954093566953623661298928342
131,1.51623318120472351549098493818016
132,1.51776507422194411442994992798189
133,1.51928539753849291257498547692459
134,1.52079432471005547741143598275937
135,1.52229202541585960562794096188371
136,1.52377866557329468025129384340049
137,1.52525440744832631466566077631775
138,1.52671940976188684251382494307549
139,1.52817382779242010657367377270687
140,1.52961781347474355373594992071198
141,1.53105151549538608571938891935774
142,1.53247507938455204189402182893366
143,1.53388864760485304041402048800189
144,1.53529235963694222422586806038539
145,1.53668635206218127075883339416149
146,1.53807075864246265535522858868729
147,1.53944571039730145553248774696554
148,1.54081133567831202513622023726867
149,1.54216776024117133937101607545933
150,1.54351510731517265161772398199502
151,1.54485349767046537632574065162805
152,1.54618304968307149718187255840465
153,1.54750387939776745028439804518724
154,1.54881610058891538159794293372775
155,1.55011982481932201471723659490772
156,1.55141516149720299533848033702182
157,1.55270221793132375907686579870723
158,1.55398109938438874076916847031190
159,1.5552519091247425981317454449955
160,1.5565147484764497873509691268315
161,1.5577697168678109867639796578677
162,1.5590169118783758297706311531600
163,1.5602564292845068003150291282001
164,1.5614883631035489275731511744884
165,1.5627128056366538801065167543561
166,1.5639298475103089751131141567301
167,1.5651395777166183351397690450599
168,1.5663420836523788812155447889193
169,1.5675374511569962245425282404984
170,1.5687257645492801999091025499822
171,1.5699071066631602353344995119289
172,1.5710815588823584246537224060106
173,1.5722492011740557054251657241703
174,1.5734101121215869857287166832942
175,1.5745643689561992048406063979598
176,1.5757120475879020341950080249499
177,1.5768532226354444792259743705890
178,1.5779879674554465365450226430483
179,1.5791163541707123514598959350098
180,1.5802384536977558222956833778452
181,1.5813543357735613001660857948857
182,1.5824640689816070796456070978379
183,1.5835677207771747296823357021099
184,1.5846653575119685063541053730164
185,1.5857570444580666556621758615857
186,1.5868428458312255750495237784262
187,1.5879228248135606342159345278217
188,1.5889970435756190916162824335807
189,1.5900655632978688378055874865622
190,1.5911284441916186167822712306742
191,1.5921857455193889479571020322463
192,1.5932375256147501310267343304123
193,1.5942838419016456376780437648478
194,1.5953247509132142309840390164274
195,1.5963603083101287449318288832073
196,1.5973905688984652160626118207110
197,1.5984155866471167426292799165566
198,1.5994354147047662333348039160223
199,1.6004501054164308795930988858901
200,1.6014597103395922915992937190234
201,1.6024642802599232747177065741961
202,1.6034638652066246224321022219487
203,1.6044585144673825806710249230187
204,1.6054482766029585985087138441969
205,1.6064331994614213306895131254114
206,1.6074133301920339108150893317674
207,1.6083887152588023659624415419676
208,1.6093594004536993942822298891559
209,1.6103254309095692485546374852779
210,1.6112868511127252214507130082763
211,1.6122437049152470916095225295963
212,1.6131960355469887578090857688580
213,1.6141438856273004392779460319493
214,1.6150872971764804179904490313941
215,1.6160263116269555293367490282347
216,1.6169609698342043557835994055108
217,1.6178913120874270827309626951450
218,1.6188173781199709891805800759075
219,1.6197392071195148463220003224673
220,1.6206568377380247323331848325207
221,1.6215703081014791658628203540160
222,1.6224796558193807557358943436949
223,1.6233849179940479278952578160901
224,1.6242861312297017890614274154537
225,1.6251833316413506838411485313481
226,1.6260765548634759834159215555577
227,1.6269658360585277488503496275545
228,1.6278512099252320794197848641982
229,1.6287327107067172983001561457990
230,1.6296103721984636620616988889437
231,1.6304842277560783834389468064853
232,1.6313543103029063765018840239710
233,1.6322206523374717099410996158134
234,1.6330832859407659147462370507453
235,1.6339422427833763175931772152033
236,1.6347975541324640989290809623984
237,1.6356492508585956961073416287459
238,1.6364973634424292828117687484332
239,1.6373419219812617605822119522095
240,1.6381829561954384160969194997972
241,1.6390204954346295257990893047332
242,1.6398545686839767640640750621510
243,1.6406852045701134459310195489411
244,1.6415124313670602928877189057101
245,1.6423362770020010950789805335879
246,1.6431567690609407887716412569539
247,1.6439739347942473311282475051853
248,1.6447878011220849531193509970828
249,1.6455983946397337593690656168668
250,1.6464057416228060593399084034659
251,1.6472098680323573295746042063946
252,1.6480107995198946052051157114270
253,1.6488085614322873726512708863262
254,1.6496031788165806200887143021557
255,1.6503946764247139254453124715328
256,1.6511830787181466670293149231561
257,1.6519684098723957478756873064744
258,1.6527506937814822782190410906965
259,1.6535299540622940192995094440672
260,1.6543062140588639745687995809868
261,1.6550794968465654417231441711055
262,1.6558498252362282506737968239877
263,1.6566172217781750377240075680551
264,1.6573817087661830065048648676736
265,1.6581433082413697006005701598836
266,1.6589020419960049553083681312822
267,1.6596579315772522414852392581068
268,1.6604109982908394349096429477741
269,1.6611612632046632807940778955159
270,1.6619087471523232773173811113196
271,1.6626534707365942618684573759404
272,1.6633954543328316793080887817002
273,1.6641347180923169751153130464042
274,1.6648712819455403221971551376939
275,1.6656051656054245567119353925051
276,1.6663363885704886010393054291505
277,1.6670649701279578577016365186777
278,1.6677909293568133286839127086738
279,1.6685142851307909631328746559564
280,1.6692350561213233268260351469846
281,1.6699532608004314827712117398674
282,1.6706689174435645797513035257563
283,1.6713820441323903618214443288235
284,1.6720926587575337558628618505191
285,1.6728007790212703450395444281126
286,1.6735064224401707534951695739163
287,1.6742096063477010021917214393771
288,1.6749103478967752382848104874811
289,1.6756086640622654867341774727391
290,1.6763045716434691573241412250241
291,1.6769980872665321486941990339054
292,1.6776892273868304349626777064318
293,1.6783780082913140414060246030830
294,1.6790644461008084468136215604243
295,1.6797485567722755003808311651846
296,1.6804303561010414394370297168972
297,1.6811098597229819404811171100565
298,1.6817870831166735210446727607120
299,1.6824620416055080960204079705778
300,1.6831347503597724398585618917403
301,1.6838052243986929668855625834099
302,1.6844734785924479235080919833834
303,1.6851395276641441662848427330144
304,1.6858033861917621042627451019251
305,1.6864650686100702349940851922545
306,1.6871245892125085383607728302957
307,1.6877819621530379111104532290621
308,1.6884372014479631214971372272455
309,1.6890903209777253742866051589522
310,1.6897413344886648222795021433942
311,1.6903902555947566202920562983583
312,1.6910370977793180357815481928926
313,1.6916818743966880099442451508436
314,1.6923245986738809746624699923445
315,1.6929652837122142460711842358642
316,1.6936039424889103715392998345958
317,1.6942405878586719698480396623639
318,1.6948752325552344170165703794531
319,1.6955078891928935205654741903693
320,1.6961385702680081847371383338585
321,1.6967672881604819868945651722748
322,1.6973940551352197808444850944318
323,1.6980188833435628424691427683216
324,1.6986417848247015361851792630971
325,1.6992627715070672656135300874082
326,1.6998818552097019471324679973096
327,1.7004990476436078285349446886168
328,1.7011143604130748434965308878654
329,1.7017278050169904782498773205558
330,1.7023393928501285837092965243601
331,1.7029491352044185732346033756155
332,1.7035570432701960689052065281276
333,1.7041631281374353765366169471558
334,1.7047674007969619751652829223635
335,1.7053698721416493376893396081957
336,1.7059705529675961425071735239676
337,1.7065694539752867502335795513507
338,1.7071665857707360062243114113494
339,1.7077619588666144353379269227977
340,1.7083555836833599222432107620348
341,1.7089474705502715928681050847882
342,1.7095376297065883962027634486409
343,1.7101260713025520263605928678866
344,1.7107128054004541807703192564029
345,1.7112978419756699760507218682564
346,1.7118811909176749986380844539753
347,1.7124628620310495578494831526268
348,1.7130428650364669554946835778391
349,1.7136212095716693194005266966943
350,1.7141979051924285456994329851587
351,1.7147729613734944400441221148932
352,1.7153463875095297427493349044313
353,1.7159181929160313249319305849624
354,1.7164883868302389728913607921054
355,1.7170569784120321288413750936052
356,1.7176239767448128006918280109244
357,1.7181893908363778828991627526935
358,1.7187532296197801354439910588314
359,1.7193155019541735692124373994280
360,1.7198762166256521789178655850577
361,1.7204353823480737717257109160779
362,1.7209930077638753765679974193347
363,1.7215491014448748332275610144668
364,1.7221036718930635887456120675103
365,1.7226567275413889411709296074696
366,1.7232082767545246120643665062931
367,1.7237583278296325436099527086912
368,1.7243068889971127130107450915261
369,1.7248539684213456007549413137511
370,1.7253995742014230300801636975767
371,1.7259437143718702352119004212271
372,1.7264863969033581192214324155840
373,1.7270276297034056727163538010349
374,1.7275674206170768664468072839284
375,1.7281057774276627141310395231787
376,1.7286427078573599665732956094534
377,1.7291782195679382312773861384688
378,1.7297123201613986900802401864639
379,1.7302450171806262598795867595372
380,1.7307763181100319586139425208610
381,1.7313062303761883574873136360888
382,1.7318347613484552433040655916250
383,1.7323619183396001714390826860802
384,1.7328877086064088791519941689047
385,1.7334121393502891866959126678416
386,1.7339352177178690512132716058970
387,1.7344569508015845292941865386308
388,1.7349773456402615917036863738231
389,1.7354964092196924718576922694233
390,1.7360141484732037442479415696447
391,1.7365305702822164570431718920183
392,1.7370456814768019347380935488831
393,1.7375594888362307320433918528594
394,1.7380719990895133280405031604559
395,1.7385832189159354256210025503161
396,1.7390931549455875154690399589244
397,1.7396018137598883431147083675963
398,1.7401092018921022960753948500957
399,1.7406153258278492859971017877145
400,1.7411201920056114351633152095114
401,1.7416238068172326259565866534824
402,1.7421261766084116684429916350640
403,1.7426273076791919170769020852483
404,1.7431272062844452401527228141217
405,1.7436258786343478183295638679342
406,1.7441233308948538924392223781534
407,1.7446195691881645888228738606923
408,1.7451145995931893372581645256354
409,1.7456084281460027547789261813223
410,1.7461010608402995224614012078854
411,1.7465925036278415281669624565648
412,1.7470827624189008712083810151251
413,1.7475718430826998217774172490730
414,1.7480597514478441731836707241380
415,1.7485464933027542855106884843203
416,1.7490320743960902654181020109640
417,1.7495165004371741461387753927159
418,1.7499997770964062469630919760798
419,1.7504819100056800072716366244596
420,1.7509629047587902941132396604113
421,1.7514427669118391531279903148924
422,1.7519215019836383025872254003195
423,1.7523991154561062254439357027640
424,1.7528756127746634924693116466624
425,1.7533509993486227158039944114615
426,1.7538252805515767603819944213879
427,1.7542984617217827191424860960705
428,1.7547705481625416876913135547269
429,1.7552415451425782734840109478792
430,1.7557114578964127250874650906949
431,1.7561802916247332093687644897646
432,1.7566480514947654111385940800045
433,1.7571147426406348189913235465132
434,1.7575803701637328219658391872654
435,1.7580449391330744683090401572936
436,1.7585084545856558158502686749510
437,1.7589709215268090648417537095230
438,1.7594323449305544858213920762730
439,1.7598927297399498553289700929519
440,1.7603520808674385032924910311331
441,1.7608104031951931656712676158755
442,1.7612677015754592408940171954716
443,1.7617239808308971338953712006201
444,1.7621792457549183444814601432331
445,1.7626335011120246693618088019737
446,1.7630867516381415822255716779252
447,1.7635390020409530024871397078806
448,1.7639902570002307138200983965391
449,1.7644405211681663174313139996532
450,1.7648897991696979185766780307284
451,1.7653380956028390971063899547381
452,1.7657854150390030528207453479108
453,1.7662317620233277199447556045090
454,1.7666771410749982927593997909606
455,1.7671215566875708413210703013361
456,1.7675650133292923713398400699436
457,1.7680075154434220831276594092259
458,1.7684490674485502869032926120625
459,1.7688896737389175520835750037029
460,1.7693293386847337989990313801973
461,1.7697680666324952513406204287575
462,1.7702058619053025335996369800368
463,1.7706427288031785911721919091280
464,1.7710786716033846707957168517297
465,1.7715136945607384097552502820055
466,1.7719478019079312473625964397718
467,1.7723809978558445252438496471289
468,1.7728132865938693814674483748060
469,1.7732446722902230081220942080108
470,1.7736751590922688934718560822213
471,1.7741047511268354162140369584351
472,1.7745334525005371938914295529011
473,1.7749612673000946450061003994236
474,1.7753881995926593818390454343314
475,1.7758142534261344743451529816244
476,1.7762394328295022213512923401473
477,1.7766637418131498894784560189598
478,1.7770871843691982284829891181932
479,1.7775097644718317905903053139379
480,1.7779314860776315923807411448872
481,1.7783523531259088200976907143995
482,1.7787723695390433034941952900452
483,1.7791915392228223011834531366912
484,1.7796098660667825871475639567559
485,1.7800273539445574924830523282596
486,1.7804440067142236720140344849699
487,1.7808598282186546374065239366447
488,1.7812748222858758545470435196293
489,1.7816889927294248433707282852634
490,1.7821023433487143625642758090572
491,1.7825148779294010424497465982306
492,1.7829266002437582934752226616048
493,1.7833375140510537153379016945758
494,1.7837476230979323620512980635957
495,1.7841569311188043286434024204835
496,1.7845654418362401895543620403245
497,1.7849731589613702730649494351123
498,1.7853800861942920296377517284671
499,1.7857862272244833186886501897719
500,1.786191585731224086768672270070
501,1.786596165384022541850283208225
502,1.786999969843053654530192488984
503,1.787403002759601847883793479779
504,1.787805267776516132268361747438
505,1.788206768528670965003957432969
506,1.788607508643439018453023648100
507,1.789007491741174180218164630105
508,1.789406721435704924520903310791
509,1.789805201334836809523808432825
510,1.790202935040870703861310707425
511,1.790599926151130551119511999029
512,1.790996178258505179352268005068
513,1.791391694952003409200374752411
514,1.791786479817323807594101768282
515,1.792180536437440166456008373694
516,1.792573868393201658614574428687
517,1.792966479263949526315063363398
518,1.793358372628152909537931091116
519,1.793749552064061461513864270356
520,1.794140021150378520070014428847
521,1.794529783466952590821480368763
522,1.794918842595492431209789644565
523,1.795307202120303240660937563694
