Eigenstate,Potential Energy
1,0.500000000014848480425526894098967551
2,0.64623093774803773778709215225782454
3,0.73633760998967920545888035640572453
4,0.79966527840724321520513032208276601
5,0.8480465763128895332922718620089529
6,0.8870659984597610947261482104567258
7,0.9197208262853145474444795916294760
8,0.9477838461661240039628706247851469
9,0.9723835571082562250239243312118297
10,0.9942802132601509923433204769369590
11,1.0140093847627584793314149079575745
12,1.0319621669206445146474266263669881
13,1.0484326897995680257326424071490772
14,1.0636476510826343057846879269606849
15,1.0777854318844749145491100437282035
16,1.090988901621689679667450582301718
17,1.103374251474349138506050900160882
18,1.115037245392192818693085587635049
19,1.126057743198606108672898056858338
20,1.136503038224556218812424580159576
21,1.146430363390289042194581014311056
22,1.155888802364069073612221588165968
23,1.164920767498703917277106334718650
24,1.173563157231966342698964068462222
25,1.181848272882520603070892610666168
26,1.189804552457510133525394679334968
27,1.197457163615133349008759534167877
28,1.204828487023683454805867482278332
29,1.211938513563500362895313254101282
30,1.218805173168795239169950706399312
31,1.225444608960369707297367800006068
32,1.231871407242352150862025620905016
33,1.238098791626425751739678531482595
34,1.244138787796476636832788810077999
35,1.250002364087395439857642989561524
36,1.255699552018286706533090650071380
37,1.261239550116256023172001438696423
38,1.266630813736526005670431285405179
39,1.271881133086783636480124493593661
40,1.276997701267840653692226168173237
41,1.281987173825938422709870632728493
42,1.286855721057036119539419905149321
43,1.291609074096934709860877395084236
44,1.296252565662995192572685838198797
45,1.300791166175640007541282958220816
46,1.305229515874690224719181068838951
47,1.309571953452114519486377231670715
48,1.313822541645179574840624262007280
49,1.317985090169329007181431539383802
50,1.32206317631599519879268938787763
51,1.32606016349508145766746650050331
52,1.32997921796350671102853583324682
53,1.33382332394875482036008674482664
54,1.33759529734880947431662666520004
55,1.34129779816638012336892576747733
56,1.34493334181524984992651396437235
57,1.34850430941937710256136947211669
58,1.35201295721058603666999407745045
59,1.35546142511792625663899569551165
60,1.35885174463075824687960615449844
61,1.36218584600805655159425083174950
62,1.36546556489812175802673831133523
63,1.36869264842565044892877612380183
64,1.37186876079679981005487695777531
65,1.37499548846734873852612051466465
66,1.37807434491420995885029815104043
67,1.38110677504628536206105523239747
68,1.38409415928690062263094460814258
69,1.38703781735674247708717355804771
70,1.38993901178329377999552976040802
71,1.39279895116016274924721525211794
72,1.39561879317740457020411857361386
73,1.39839964744188052185482545274483
74,1.40114257810488093958133653163107
75,1.40384860631260722803369221249601
76,1.40651871249365858085474430376879
77,1.40915383849636666557940837351413
78,1.41175488958765573385272646563844
79,1.41432273632405879711897245109689
80,1.41685821630458238228975928178234
81,1.41936213581426304042256555386133
82,1.42183527136649733088771563735015
83,1.42427837115153826971226712278377
84,1.42669215639792693907317482421727
85,1.42907732265306867873849945946747
86,1.43143454098864741486616879442483
87,1.43376445913611421076993129420449
88,1.43606770255706274652652339734316
89,1.43834487545292093213658903943168
90,1.44059656171804464222263004978120
91,1.44282332583997810819660878516264
92,1.44502571375035720629071155370770
93,1.44720425362966962478916635255143
94,1.44935945666884296506091756326676
95,1.45149181779041067696396521172110
96,1.45360181633180390707577524556156
97,1.45568991669313299609451825770430
98,1.45775656895164948746127934273399
99,1.45980220944492603706416839465684
100,1.46182726132464527346927861154845
101,1.46383213508275935396891014073912
102,1.46581722905165638701642888202703
103,1.46778292987986197800425261611970
104,1.46972961298469689063102743871946
105,1.47165764298321874234718842559036
106,1.47356737410268488812437224793750
107,1.47545915057169556483873934050754
108,1.47733330699309712900388616271410
109,1.47919016869965662705485155435008
110,1.48103005209345651725968781595707
111,1.48285326496989250113652259712843
112,1.48466010682710798862057188763979
113,1.48645086916164318543150057148279
114,1.48822583575102803333517141208610
115,1.48998528292400778549125628390345
116,1.49172947981904166742997557861245
117,1.49345868863168336119444913042579
118,1.49517316485141101907957502844600
119,1.49687315748844079968208078864538
120,1.49855890929103207674136337394572
121,1.50023065695375420400655504921236
122,1.50188863131716580623242993411409
123,1.50353305755932537347478683194332
124,1.50516415537953425604727521734875
125,1.50678213917468359123852904302189
126,1.50838721820856149559090775029195
127,1.50997959677445627865575023189850
128,1.51155947435136884695015026555387
129,1.51312704575413539360217588040118
130,1.51468250127774308730416454265039
131,1.51622602683610607007565943104366
132,1.51775780409555409613673796320194
133,1.51927801060327436260859253740113
134,1.52078681991093580679925270526628
135,1.52228440169370703648994444178046
136,1.52377092186487537210720546559146
137,1.52524654268626117172223033191177
138,1.52671142287460799782837979009961
139,1.52816571770412707894215198560928
140,1.52960957910535907310462701926095
141,1.53104315576051158287048567125884
142,1.53246659319542279810454613245468
143,1.53388003386829299273657192820041
144,1.53528361725531842198799320109929
145,1.53667747993335797882523721297851
146,1.53806175565975509964329804191256
147,1.53943657544942920621724585962185
148,1.54080206764935201292605495623411
149,1.54215835801051050017875503909578
150,1.54350556975746019489585025820028
151,1.54484382365556467227502426914867
152,1.54617323807601157798562853711987
153,1.54749392905869412045969481771137
154,1.54880601037304193249531067079431
155,1.55010959357687953813826579678519
156,1.55140478807339029117798022912584
157,1.55269170116625683183357918112709
158,1.55397043811304987970353246584086
159,1.5552411021769290357842841336151
160,1.5565037946767219310675770958602
161,1.5577586150354402178074137244871
162,1.5590056608272918645279878930639
163,1.5602450278232446080419365318749
164,1.5614768100351951990437951419006
165,1.5627010997587930414662775937382
166,1.5639179876149687411580852670051
167,1.5651275625902147961726140224918
168,1.5663299120756611175509947649272
169,1.5675251219049904426600180738662
170,1.5687132763912333841705047821809
171,1.5698944583624833091068520572399
172,1.5710687491965689145955297623710
173,1.5722362288547199026131585262202
174,1.5733969759142615972180225385829
175,1.5745510676003724891678219526954
176,1.5756985798169344142463149507307
177,1.5768395871765086258061010972451
178,1.5779741630294669158935013543289
179,1.5791023794923042298710782754681
180,1.5802243074751637209064079512801
181,1.5813400167085968928829461177665
182,1.5824495757695865270879986674965
183,1.5835530521068554419212911345785
184,1.5846505120654853271297486302434
185,1.5857420209108674606612128546048
186,1.5868276428520062767258639506681
187,1.5879074410641995855319310420706
188,1.5889814777111108809793185668165
189,1.5900498139662574673677711889793
190,1.5911125100339300561631869736572
191,1.5921696251695630553393918677545
192,1.5932212176995719334631530279619
193,1.5942673450406759623346176479434
194,1.5953080637187196789293679187339
195,1.5963434293870109989638309453512
196,1.5973734968441896739464250904655
197,1.5983983200516404669973612498755
198,1.5994179521504652093779347247515
199,1.6004324454780265715444198307749
200,1.6014418515840774888872753296460
201,1.6024462212464872185340672329252
202,1.6034456044865774033271048163577
203,1.6044400505840787976574529218886
204,1.6054296080917202700164828584926
205,1.6064143248494600475766408279031
206,1.6073942479983722214979322195917
207,1.6083694239941943835852990702256
208,1.6093398986205506157011048437739
209,1.6103057170018555747599545144395
210,1.6112669236159111689044919991690
211,1.6122235623062031838181871293215
212,1.6131756762939080862968571819446
213,1.6141233081896143829663793347706
214,1.6150665000047735098298048813002
215,1.6160052931628794588680967740726
216,1.6169397285103910961446090432271
217,1.6178698463274011304482713391055
218,1.6187956863380607049179839003198
219,1.6197172877207628845766170792301
220,1.6206346891180975478948185363335
221,1.6215479286465755846666514964240
222,1.6224570439061395975547883840511
223,1.6233620719894546681284059405030
224,1.6242630494909942466839536301982
225,1.6251600125159237223831388783720
226,1.6260529966887852116406858096600
227,1.6269420371619922076000207368736
228,1.6278271686241359008877630187536
229,1.6287084253081103237818731959926
230,1.6295858409990610040213741284866
231,1.6304594490421589175115740216797
232,1.6313292823502101488288691443639
233,1.6321953734110962450128219745812
234,1.6330577542950614086944235273292
235,1.6339164566618397016434812400308
236,1.6347715117676319574861224191194
237,1.6356229504719360237018007690093
238,1.6364708032442320638930255917158
239,1.6373151001705283558894273608269
240,1.6381558709597697390843282110907
241,1.6389931449501129923330544411713
242,1.6398269511150719983435090776924
243,1.6406573180695367253117276299594
244,1.6414842740756677140182128180012
245,1.6423078470486704434747748702920
246,1.6431280645624520936683438469713
247,1.6439449538551620871658558186487
248,1.6447585418346239901127682827573
249,1.6455688550836537411189618839939
250,1.6463759198652745921307614066155
251,1.6471797621278266606941006402479
252,1.6479804075099738915017261966812
253,1.6487778813456134988205445267884
254,1.6495722086686875460489978613730
255,1.6503634142179005418268725921246
256,1.6511515224413431374570612737742
257,1.6519365575010283163765150374793
258,1.6527185432773365197278873286580
259,1.6534975033733765108751271576669
260,1.6542734611192623645601127415667
261,1.6550464395763068937502240281790
262,1.6558164615411362389015210989109
263,1.6565835495497244695169777055171
264,1.6573477258813536481502369135956
265,1.6581090125624978813798785382192
266,1.6588674313706335247838139228431
267,1.6596230038379787544431536895651
268,1.6603757512551625379717051298117
269,1.6611256946748272742674464024756
270,1.6618728549151608254072362005251
271,1.6626172525633672239181594624264
272,1.6633589079790700342664606466160
273,1.6640978412976558109551837018675
274,1.6648340724335548615246327509336
275,1.6655676210834631893115785140524
276,1.6662985067295038935957943660972
277,1.6670267486423355104241974331929
278,1.6677523658841990480362534828245
279,1.6684753773119152193353206074565
280,1.6691958015798239642515916041052
281,1.6699136571426741507997147748132
282,1.6706289622584609510792339651307
283,1.6713417349912141046440331255555
284,1.6720519932137342257558939561721
285,1.6727597546102839617623320994023
286,1.6734650366792300273240239286499
287,1.6741678567356411737625332277112
288,1.6748682319138384952840875979685
289,1.6755661791699027201233982969445
290,1.6762617152841392191143388056777
291,1.6769548568634985726075497206174
292,1.6776456203439555806211008992976
293,1.6783340219928506219784341973701
294,1.6790200779111883993275491972711
295,1.6797038040358961571662358816248
296,1.6803852161420489584125617176789
297,1.6810643298450519512249316921726
298,1.6817411606027889428026480525528
299,1.6824157237177340830015836363219
300,1.6830880343390284083474307530775
301,1.6837581074645216578613227668597
302,1.6844259579427814536071256015225
303,1.6850916004750670190660548573971
304,1.6857550496172710128445867198013
305,1.6864163197818309062186674989297
306,1.6870754252396091677107268018930
307,1.6877323801217394366493134136590
308,1.6883871984214461641364628592693
309,1.6890398939958338106846593023663
310,1.6896904805676459356663856371795
311,1.6903389717269977734755413488122
312,1.6909853809330798095293958934972
313,1.6916297215158337488567591482680
314,1.6922720066776026815421702350465
315,1.6929122494947547646655666118476
316,1.6935504629192817963759448760225
317,1.6941866597803702207004692958690
318,1.6948208527859499143303740554158
319,1.6954530545242178969420830368374
320,1.6960832774651369663081941166733
321,1.6967115339619131771292556409822
322,1.6973378362524482780133125135663
323,1.6979621964607706206391856800577
324,1.6985846265984435182392628218549
325,1.6992051385659528153790702923732
326,1.6998237441540719062566653484016
327,1.7004404550452070222736389879501
328,1.7010552828147199780684966542576
329,1.7016682389322333508674842126491
330,1.7022793347629145248147978795637
331,1.7028885815687400388547846102578
332,1.7034959905097412993864104843886
333,1.7041015726452320362233637421576
334,1.7047053389350156858617104317701
335,1.7053073002405770169657636524113
336,1.7059074673262540561019589082498
337,1.7065058508603931859446384182179
338,1.7071024614164884747839155530638
339,1.7076973094743013018205390829020
340,1.7082904054209663695659206157545
341,1.7088817595520798169029416698024
342,1.7094713820727719299347575687465
343,1.7100592830987640883887215568875
344,1.7106454726574099412601942297380
345,1.7112299606887226310082446163846
346,1.7118127570463855410759304248132
347,1.7123938714987501320714302241973
348,1.7129733137298176783118256300335
349,1.7135510933402084496318517425793
350,1.7141272198481158807758141171815
351,1.7147017026902478159545474951357
352,1.7152745512227545109102837335883
353,1.7158457747221426768457620480063
354,1.7164153823861769806724243957075
355,1.7169833833347693668395573397810
356,1.7175497866108544105118704908089
357,1.7181146011812539411188874529056
358,1.7186778359375301802622295033168
359,1.7192394996968231391049023974356
360,1.7197996012026812131472854208676
361,1.7203581491258767192445935208246
362,1.7209151520652128564518443967670
363,1.7214706185483166862957498851021
364,1.7220245570324231564540804862426
365,1.7225769759051484041962443976010
366,1.7231278834852512172421521302940
367,1.7236772880233855440368451546303
368,1.7242251977028408421578265878687
369,1.7247716206402748973881629060975
370,1.7253165648864348266192181405524
371,1.7258600384268691178802595445179
372,1.7264020491826296639630101657073
373,1.7269426050109637563455239874931
374,1.7274817137060003478837521480623
375,1.7280193829994212758296365562415
376,1.7285556205611289013805210907475
377,1.7290904339999019549594942853346
378,1.7296238308640427546274410129928
379,1.7301558186420176374175195191083
380,1.7306864047630873603460534980486
381,1.7312155965979303465245752450098
382,1.7317434014592558945323172635933
383,1.7322698266024120256991983938782
384,1.7327948792259829329893565713178
385,1.7333185664723796527280134091296
386,1.7338408954284246178129446779512
387,1.7343618731259258417341366568105
388,1.7348815065422446701871011275232
389,1.7353998026008577749517356992217
390,1.7359167681719105791282177221653
391,1.7364324100727624306554096121520
392,1.7369467350685271324730607562780
393,1.7374597498726063027980526962957
394,1.7379714611472141465949408033949
395,1.7384818755038964950963262415130
396,1.7389909995040437642234308065076
397,1.7394988396593974617971165317693
398,1.7400054024325502516557784320626
399,1.7405106942374381404533840741754
400,1.7410147214398290870768872272395
401,1.7415174903578040835840973013046
402,1.7420190072622314528600932272837
403,1.7425192783772371837129514884398
404,1.7430183098806691964797783976164
405,1.7435161079045530045691564595070
406,1.7440126785355448809554178288102
407,1.7445080278153796463256326039654
408,1.7450021617413105820539343822333
409,1.7454950862665443290607153095986
410,1.7459868073006732870157342999685
411,1.7464773307100997738832862152869
412,1.7469666623184555283791553677986
413,1.7474548079070176343792203629146
414,1.7479417732151172911053847641075
415,1.7484275639405457130314631063821
416,1.7489121857399535891224615219561
417,1.7493956442292469498736679331565
418,1.7498779449839766053662438779406
419,1.7503590935397254328309891947389
420,1.7508390953924884956217713785456
421,1.7513179559990499457627938482956
422,1.7517956807773559916513763473157
423,1.7522722751068817670363522349196
424,1.7527477443289957149761233358842
425,1.7532220937473178661155132761393
426,1.7536953286280756181003922543103
427,1.7541674542004545007386967978604
428,1.7546384756569439405736018413451
429,1.7551083981536819372344631740317
430,1.7555772268107915136489502319554
431,1.7560449667127164437476648477191
432,1.7565116229085534071519774446422
433,1.7569772004123759087188917411294
434,1.7574417042035610608556671624015
435,1.7579051392271070522541327854746
436,1.7583675103939492040098484149423
437,1.7588288225812727744704947776382
438,1.7592890806328214948516715590444
439,1.7597482893592025168983074396738
440,1.7602064535381888437782689424878
441,1.7606635779150164040337647109756
442,1.7611196672026793322089824484613
443,1.7615747260822231038214247947983
444,1.7620287592030301440189044937973
445,1.7624817711831072405520362552497
446,1.7629337666093657853815392623677
447,1.7633847500379020140588734008507
448,1.7638347259942704610509605385556
449,1.7642836989737584714825506041728
450,1.7647316734416539217056357691143
451,1.7651786538335136517581272751226
452,1.7656246445554254510273981369686
453,1.7660696499842693401573770793415
454,1.7665136744679745381145976542827
455,1.7669567223257757382513818643411
456,1.7673987978484639903308708695280
457,1.7678399052986368841857186724805
458,1.7682800489109444308718083267252
459,1.7687192328923331552056624836743
460,1.7691574614222880419922902217549
461,1.7695947386530701856315025387286
462,1.7700310687099533561159084248903
463,1.7704664556914580851539152223088
464,1.7709009036695814332852660000923
465,1.7713344166900264066865468141737
466,1.7717669987724281543241306640816
467,1.7721986539105762259317539023033
468,1.7726293860726379064133880154738
469,1.7730591992013751033283032036007
470,1.7734880972143623119580633811625
471,1.7739160840041999250210143312955
472,1.7743431634387271846047847735638
473,1.7747693393612301271763818405043
474,1.7751946155906520256213129395236
475,1.7756189959217952510233296033559
476,1.7760424841255270679458878471626
477,1.7764650839489796961678188460253
478,1.7768867991157493148160340363654
479,1.7773076333260928982334852176408
480,1.7777275902571232781168650195476
481,1.7781466735630009827512830601657
482,1.7785648868751264220805202961621
483,1.7789822338023277985607531171137
484,1.7793987179310475635026337567852
485,1.7798143428255288957263333373810
486,1.7802291120279967872712415830696
487,1.7806430290588405848893330271899
488,1.7810560974167925837546801646983
489,1.7814683205791059014341100217652
490,1.7818797020017294951071620181108
491,1.7822902451194824561786909063295
492,1.7826999533462261703297119522124
493,1.7831088300750343178709184630829
494,1.7835168786783618082923405821118
495,1.7839241025082108413563869022320
496,1.7843305048962973390036165629750
497,1.7847360891542134334385008097908
498,1.7851408585735899564920149577067
499,1.7855448164262564274231266192146
500,1.785947965964400669469356442881
501,1.786350310420723800992859142299
502,1.786751853008598056207319355799
503,1.787152596922218903411767983365
504,1.787552545336759304366373449495
505,1.787951701408518962067191587065
506,1.788350068275074286797004787552
507,1.788747649055426928263467574748
508,1.789144446850150513564683599224
509,1.789540464741533821648647505681
510,1.789935705793726447277031462106
511,1.790330173052880185339237464597
512,1.790723869547290035481137893712
513,1.791116798287533442552820634767
514,1.791508962266608449104383922281
515,1.791900364460071133995185772155
516,1.792291007826170547271352934879
517,1.792680895305982215868682642676
518,1.793070029823542005345733847309
519,1.793458414285977119409174922526
520,1.793846051583637094053723256582
521,1.794232944590221581364315108970
522,1.794619096162909199000221537902
523,1.795004509142483882337534286192
