Eigenstate,Potential Energy
1,0.500000000087211317631051083516992565
2,0.64623093822038588580164893533263534
3,0.73633761137716951272311501761618718
4,0.79966528129724346526947318637599594
5,0.8480465813189974981159001305854946
6,0.8870660062063361387751140648816768
7,0.9197208374017810247028688891161582
8,0.9477838612845981067514084932989558
9,0.9723835768624448258946680395754675
10,0.9942802382847949322906570226532775
11,1.0140094156933321594942176283222362
12,1.0319622043931860993876043824476602
13,1.0484327344505807540588658031156056
14,1.0636477035490287287987116305492580
15,1.0777854928035358258947030684934643
16,1.090988971631058560075260191706483
17,1.103374331212016695291271977232310
18,1.115037335496498298471186289952912
19,1.126057844308241279190716723597165
20,1.136503150978572647922079568441753
21,1.146430488428107756111536178218742
22,1.155888940325491966187293807759683
23,1.164920919023926471330209814245008
24,1.173563322961591351031757624374307
25,1.181848453457572663127357955671533
26,1.189804748519450749678746952346774
27,1.197457375805876518863813799004343
28,1.204828715985611646344680748952098
29,1.211938759939480811451964517553058
30,1.218805437602196509562527521094343
31,1.225444892095078478644770289815331
32,1.231871709722790190822777548954001
33,1.238099114097567053935370393722675
34,1.244139130903864700630326168985857
35,1.250002728477160675891048224251810
36,1.255699938337163954643342812830735
37,1.261239959011602172049670127729200
38,1.266631245856337705560981314956810
39,1.271881589079715097975912137823653
40,1.276998181783221526978871077840106
41,1.281987679513791752726264785007895
42,1.286856252568096373403145627418160
43,1.291609632082665873644635334844055
44,1.296253150775608935123969531481545
45,1.300791779068113909541873864738149
46,1.305230157200786071602447649041348
47,1.309572623866396657184048435983215
48,1.313823241803033327629290452602930
49,1.317985820726979157151994645375079
50,1.32206393793052452668134582202629
51,1.32606095682444934497126624210898
52,1.32998004366656780348675871205014
53,1.33382418268527775301931371785039
54,1.33759618977949565851588139864161
55,1.34129872495288259608428239956946
56,1.34493430362019218600474899171090
57,1.34850530690637239045126028196234
58,1.35201399104425591832996914591510
59,1.35546249596392003236137300442609
60,1.35885285315577204582695377968205
61,1.36218699287985256889253073996962
62,1.36546675078554755930429162568770
63,1.36869387399865834323003676782930
64,1.37187002672646629209388468928795
65,1.37499679542589400127819538085074
66,1.37807569357501747751028505979907
67,1.38110816608392155042452065164985
68,1.38409559337713456298048380413215
69,1.38703929517656572469017960026932
70,1.38994053401094024334178091762781
71,1.39280051847512864717632654415799
72,1.39562040626046846709219278485036
73,1.39840130697512344204906090834876
74,1.40114428477170656228895908873758
75,1.40385036079776216388913502099831
76,1.40652051548325273140524751258953
77,1.40915569067789366694545049215975
78,1.41175679165001348583514845159054
79,1.41432468895757007903979669151349
80,1.41686022020101555686825408689042
81,1.41936419166685284700278966902557
82,1.42183737986996576934787432373850
83,1.42428053300211557640010732018109
84,1.42669437229337265612558956841787
85,1.42907959329269281815720050017842
86,1.43143686707333171873468171500071
87,1.43376684136833350901099921328954
88,1.43607014164090641361225320976712
89,1.43834737209411444417719276568220
90,1.44059911662397123587300698087345
91,1.44282593971970054283367823405778
92,1.44502838731463963092760160964886
93,1.44720698759099955120628127295071
94,1.44936225174145334864723212173594
95,1.45149467469030210677581563020366
96,1.45360473577676690663399652333320
97,1.45569289940277043645499543048315
98,1.45775961564739911410760197558013
99,1.45980532085008311218561804820901
100,1.46183043816438533520136142768816
101,1.46383537808416109418822089621322
102,1.46582053894372464929617175261044
103,1.46778630739355087735123620687161
104,1.46973305885293305664044361589426
105,1.47166115794092468742585191039429
106,1.47357095888680250244879685176479
107,1.47546280592120973972965729208964
108,1.47733703364905951041446115287240
109,1.47919396740520950088580985751225
110,1.48103392359385682823032819647856
111,1.48285721001253600695697925033612
112,1.48466412616155355122718915586250
113,1.48645496353963720106365596538314
114,1.48823000592652900324889779444267
115,1.48998952965321102912207629575046
116,1.49173380386040417983472850563257
117,1.49346309074594881661945167780682
118,1.49517764580163492252025567703838
119,1.49687771804001578831726344819260
120,1.49856355021171337314394666825091
121,1.50023537901368522305056071546690
122,1.50189343528890391763547363334276
123,1.50353794421786782193404398877590
124,1.50516912550234424094631526805179
125,1.50678719354171650792226190622938
126,1.50839235760229134022563671873787
127,1.50998482197990221871155987991341
128,1.51156478615612195936346628960858
129,1.51313244494838557269705673273694
130,1.51468798865430612457188759415616
131,1.51623160319045090793374339845166
132,1.51776347022583025781039844594661
133,1.51928376731033956029897102421865
134,1.52079266799838373032592303828315
135,1.52229034196789532461753637293656
136,1.52377695513495376878864955752481
137,1.52525266976419986951496862932100
138,1.52671764457522617076334015657891
139,1.52817203484512160714921447155994
140,1.52961599250733346152284041511044
141,1.53104966624700507639571097567698
142,1.53247320159293969555266681596858
143,1.53388674100633216202546063468996
144,1.53529042396640301896767155700887
145,1.53668438705306537221122900343697
146,1.53806876402674700453538919765869
147,1.53944368590548202871243940494833
148,1.54080928103938740836182029286626
149,1.54216567518262614757075276441705
150,1.54351299156296079016190679890692
151,1.54485135094899314286638422701231
152,1.54618087171518052157491563430562
153,1.54750166990471747036476914808452
154,1.54881385929036685254770272723926
155,1.55011755143331854973541668997401
156,1.55141285574015363528948186494310
157,1.55269987951798506876197255280343
158,1.55397872802784672943264826283286
159,1.5552495045363944617798112153693
160,1.5565123103659854704271647750430
161,1.5577672449431945606907009069456
162,1.5590144058458266858306418040798
163,1.5602538888484806543112266329806
164,1.5614857879667186336684908495560
165,1.5627101954998900512085251258799
166,1.5639272020726604071298942258175
167,1.5651368966752922323963230716951
168,1.5663393667027208802797018799901
169,1.5675346979924702136704412845343
170,1.5687229748614479312794409529165
171,1.5699042801416607271998385358443
172,1.5710786952148871504956517722592
173,1.5722463000463435671570703510153
174,1.5734071732173790679464707398710
175,1.5745613919572333070784627672453
176,1.5757090321738869780980412183959
177,1.5768501684840381875056704627029
178,1.5779848742422338805375171977080
179,1.5791132215691827640602084998579
180,1.5802352813792806729918404603313
181,1.5813511234073710288495022961024
182,1.5824608162347680858237548138861
183,1.5835644273145660136690381462412
184,1.5846620229962580589618597509092
185,1.5857536685496875928677990960361
186,1.5868394281883520140516389040227
187,1.5879193650920833072483116542615
188,1.5889935414291206938259467297587
189,1.5900620183775991054482727352605
190,1.5911248561464691319306873903373
191,1.5921821139958676658591806849660
192,1.5932338502569556261918018905930
193,1.5942801223512410647083635473913
194,1.5953209868094009961082790820496
195,1.5963564992896198841336274254932
196,1.5973867145954584756346803648978
197,1.5984116866932673579179949273698
198,1.5994314687291594013748806329287
199,1.6004461130455539212640326604708
200,1.6014556711973064988676102807029
201,1.6024601939674354384592987097527
202,1.6034597313824582362574257592709
203,1.6044543327273487161048427774317
204,1.6054440465601264468015600141995
205,1.6064289207260884064639195004023
206,1.6074090023716959126730998507130
207,1.6083843379581226891034288959764
208,1.6093549732744782901009731071782
209,1.6103209534507126261090625535750
210,1.6112823229702130856071042329574
211,1.6122391256821016125887852788890
212,1.6131914048132419667737059404510
213,1.6141392029799615445113370070229
214,1.6150825621995027361337566501266
215,1.6160215239012030260566878701685
216,1.6169561289374177901542703764703
217,1.6178864175941897495197262554416
218,1.6188124296016740531318975972493
219,1.6197342041443222624371561078592
220,1.6206517798708377460455330190149
221,1.6215651949039003869065644835964
222,1.6224744868496777994049949351001
223,1.6233796928071166172847370986999
224,1.6242808493770289117766021200709
225,1.6251779926709762965521561795253
226,1.6260711583199552575245910829635
227,1.6269603814828923504245406638309
228,1.6278456968549510764343488070423
229,1.6287271386756575881083957498682
230,1.6296047407368499119009805427224
231,1.6304785363904524766534365594593
232,1.6313485585560863570413057812939
233,1.6322148397285102175686619041771
234,1.6330774119849081032598164460688
235,1.6339363069920172482332853358120
236,1.6347915560131056010135903605312
237,1.6356431899148026867966886999287
238,1.6364912391737855377687600076220
239,1.6373357338833251271505083041381
240,1.6381767037596954604762560304123
241,1.6390141781484496055495870681020
242,1.6398481860305655171212035078637
243,1.6406787560284656871593434613763
244,1.6415059164119123090462027954047
245,1.6423296951037823289115971952447
246,1.6431501196857249027735268903398
247,1.6439672174037026413732466439606
248,1.6447810151734242233657588222125
249,1.6455915395856633454876576471844
250,1.6463988169114743939326114102964
251,1.6472028731073027364732464072735
252,1.6480037338199924333574706556389
253,1.6488014243916964387133779215499
254,1.6495959698646889488538067715951
255,1.6503873949860837770440973725773
256,1.6511757242124588396396436606400
257,1.6519609817143931444765540157460
258,1.6527431913809127257175673110704
259,1.6535223768238523281490610908343
260,1.6542985613821332267823009281550
261,1.6550717681259574949653758561492
262,1.6558420198609234458929909402138
263,1.6566093391320610975552618800351
264,1.6573737482277931114433921614620
265,1.6581352691838197297063843133439
266,1.6588939237869298779601671716200
267,1.6596497335787416464529535541411
268,1.6604027198593721827633661885566
269,1.6611529036910412654063823267508
270,1.6619003059016042819542310729189
271,1.6626449470880238950930468515981
272,1.6633868476197743756476087333107
273,1.6641260276421860451585956503789
274,1.6648625070797270365056324864107
275,1.6655963056392262476321810599927
276,1.6663274428130357662063300076251
277,1.6670559378821402487165320561289
278,1.6677818099192050081371494871811
279,1.6685050777915743128255982152398
280,1.6692257601642119897160650396180
281,1.6699438755025922208366302310771
282,1.6706594420755380296265973268342
283,1.6713724779580106697105816125943
284,1.6720830010338470728819683826334
285,1.6727910289984521637765242269035
286,1.6734965793614420662046087572453
287,1.6741996694492432606638188095184
288,1.6749003164076440950402613145733
289,1.6755985372043032968009512343134
290,1.6762943486312162194486169757419
291,1.6769877673071366644247762392819
292,1.6776788096799571636225803551658
293,1.6783674920290516285385202975770
294,1.6790538304675754032438334267780
295,1.6797378409447248085844368952492
296,1.6804195392479637634461760808207
297,1.6810989410052074150860535838783
298,1.6817760616869720955659629585735
299,1.6824509166084884074345363339587
300,1.6831235209317791895545686230855
301,1.6837938896677027748139803746330
302,1.6844620376779636329571456719654
303,1.6851279796770875719769738978592
304,1.6857917302343650759138278158675
305,1.6864533037757642079126943460405
306,1.6871127145858123420870021507170
307,1.6877699768094439065017543347845
308,1.6884251044538216160656417437406
309,1.6890781113901272849716034123561
310,1.6897290113553225542071789074788
311,1.6903778179538831294250653183339
312,1.6910245446595040426991673624267
313,1.6916692048167773313138287368304
314,1.6923118116428439382694088831273
315,1.6929523782290191545644740983228
316,1.6935909175423929793191259891301
317,1.6942274424274029367784228074491
318,1.6948619656073847018831076443386
319,1.6954944996860976764180910154266
320,1.6961250571492255174571549748635
321,1.6967536503658555375056239143565
322,1.6973802915899330912510899688540
323,1.6980049929616944634458419317555
324,1.6986277665090772355596439040630
325,1.6992486241491098936891402327084
326,1.6998675776892789154682068977806
327,1.7004846388288761572607609765554
328,1.7010998191603237313704140048011
329,1.7017131301704813486724104077296
330,1.7023245832419325588955398871966
331,1.7029341896542513276985415898594
332,1.7035419605852500123520118114560
333,1.7041479071122091151549987920779
334,1.7047520402130869992000889261462
335,1.7053543707677138820196655360202
336,1.7059549095589661657813370006464
337,1.7065536672739239769042252483983
338,1.7071506545050129745891871710933
339,1.7077458817511264934235546492900
340,1.7083393594187341120688730017068
341,1.7089310978229723622930836019854
342,1.7095211071887200761918505564012
343,1.7101093976516580101015667104431
344,1.7106959792593127396372134287090
345,1.7112808619720866459334918727453
346,1.7118640556642714686432165697660
347,1.7124455701250489918256939651350
348,1.7130254150594756752449072277290
349,1.7136036000894547768055218231686
350,1.7141801347546935093044519875830
351,1.7147550285136473199370994279308
352,1.7153282907444509757957426301413
353,1.7158999307458357406168775581012
354,1.7164699577380340581610270322061
355,1.7170383808636721084270049537050
356,1.7176052091886484474392456814227
357,1.7181704517030019706121609218242
358,1.7187341173217684446887787544533
359,1.7192962148858213544071806840892
360,1.7198567531627060028504755813197
361,1.7204157408474586114099309723857
362,1.7209731865634169020474177518167
363,1.7215290988630167585797619706723
364,1.7220834862285799921112612458110
365,1.7226363570730914481456355787647
366,1.7231877197409643342305081051264
367,1.7237375825087966613569619363800
368,1.7242859535861155890898664374513
369,1.7248328411161143082412301648659
370,1.7253782531763771755575624481636
371,1.7259221977795959550653581150758
372,1.7264646828742761239083089839617
373,1.7270057163454332107846984805012
374,1.7275453060152834768857504147524
375,1.7280834596439196323605111932785
376,1.7286201849299830460115261363409
377,1.7291554895113242389573271060251
378,1.7296893809656548312297477243887
379,1.7302218668111927827020156972242
380,1.7307529545072976867488341085953
381,1.7312826514550989937403976650548
382,1.7318109649981142842523378269316
383,1.7323379024228622684016141132440
384,1.7328634709594654768008714529359
385,1.7333876777822462662184921942049
386,1.7339105300103168004738099731679
387,1.7344320347081587578220821567487
388,1.7349521988861967035970651311061
389,1.7354710295013658048036627888799
390,1.7359885334576710778307856448343
391,1.7365047176067384883309284767986
392,1.7370195887483615138025447494869
393,1.7375331536310406445760847215589
394,1.7380454189525144065594775997426
395,1.7385563913602847649400111316282
396,1.7390660774521365620840133121999
397,1.7395744837766506219764325538115
398,1.7400816168337105318298979427902
399,1.7405874830750016692071372373572
400,1.7410920889045067772363176655268
401,1.7415954406789941395217320396085
402,1.7420975447084991027145869565201
403,1.7425984072568017703064039972280
404,1.7430980345418987636220280783099
405,1.7435964327364665184232457820442
406,1.7440936079683222291915413124460
407,1.7445895663208795609287634755916
408,1.7450843138335966348597325020748
409,1.7455778565024191523916712848608
410,1.7460702002802211751675527236036
411,1.7465613510772378246748556592629
412,1.7470513147614934875349710193778
413,1.7475400971592266091577904628668
414,1.7480277040553075033249768634252
415,1.7485141411936534654841516563391
416,1.7489994142776376232973262208335
417,1.7494835289704943769521736787779
418,1.7499664908957185965986599851647
419,1.7504483056374628596470343946825
420,1.7509289787409277142042416122510
421,1.7514085157127489252825851385374
422,1.7518869220213809899678367511673
423,1.7523642030974747623837916022385
424,1.7528403643342528070086501732170
425,1.7533154110878788646518628703239
426,1.7537893486778250430294508584211
427,1.7542621823872342217892916040820
428,1.7547339174632776910455602983147
429,1.7552045591175119413220998865914
430,1.7556741125262274726811178516724
431,1.7561425828307971325035801990823
432,1.7566099751380211374276411938288
433,1.7570762945204641234771674680540
434,1.7575415460167953286414645483389
435,1.7580057346321197380674526849637
436,1.7584688653383080995296670225025
437,1.7589309430743239774053396004527
438,1.7593919727465468342736585754971
439,1.7598519592290918286926142419774
440,1.7603109073641274078204281591392
441,1.7607688219621878624112753900780
442,1.7612257078024844157078368851163
443,1.7616815696332145020463775626893
444,1.7621364121718638628864462528621
445,1.7625902401055107995149193930261
446,1.7630430580911236156003213414113
447,1.7634948707558584278659034520802
448,1.7639456826973505724369615569855
449,1.7643954984840074569922435959902
450,1.7648443226552950210835902966115
451,1.7652921597220253179142909096391
452,1.7657390141666380694406505410423
453,1.7661848904434819486858290742985
454,1.7666297929790919893570130381445
455,1.7670737261724667581195525019645
456,1.7675166943953405983468149014962
457,1.7679587019924556532354702801164
458,1.7683997532818300767290610493017
459,1.7688398525550249591085209398944
460,1.7692790040774096229180409271060
461,1.7697172120884231526857952301861
462,1.7701544808018353856483564235419
463,1.7705908144060059818503139840268
464,1.7710262170641397495674649995095
465,1.7714606929145422103140340340508
466,1.7718942460708725501332384034063
467,1.7723268806223932541957648741775
468,1.7727586006342214573763163044151
469,1.7731894101475745050734833278516
470,1.7736193131800172669411905706742
471,1.7740483137257054893472718712305
472,1.7744764157556295034756253391894
473,1.7749036232178536599050753774559
474,1.7753299400377590142349438915408
475,1.7757553701182782077538468233423
476,1.7761799173401350788868649773331
477,1.7766035855620793610836570645311
478,1.7770263786211211665268581032101
479,1.7774483003327641692175166885416
480,1.7778693544912379070032989036529
481,1.7782895448697277792170767931517
482,1.7787088752206063353985405210956
483,1.7791273492756612626557474234309
484,1.7795449707463229199203922850299
485,1.7799617433238929254409239851622
486,1.7803776706797684127741096912598
487,1.7807927564656688355696440021245
488,1.7812070043138599502254917047884
489,1.7816204178373782382371313842707
490,1.7820330006302536661752181744010
491,1.7824447562677329535906800268672
492,1.7828556883065019743245213286932
493,1.7832658002849073048240970689284
494,1.7836750957231780534741252495508
495,1.7840835781236462048120923466210
496,1.7844912509709687659092687445863
497,1.7848981177323474448428812374302
498,1.7853041818577498524947812365443
499,1.7857094467801297726660772247844
500,1.786113915915648680369115877808
501,1.786517592663894305508399762728
502,1.786920480408103750174843417473
503,1.787322582515382682689525386848
504,1.787723902336928509281303296382
505,1.788124443208250430025888682145
506,1.788524208449392170523262119059
507,1.788923201365155301037207440037
508,1.789321425245322849145506989952
509,1.789718883364881505421932148701
510,1.790115578984248546596072379132
511,1.790511515349496781254882498987
512,1.790906695692581495086996946892
513,1.791301123231568091221204207797
514,1.791694801170861185027570416127
515,1.792087732701435613843803431001
516,1.792479921001067661577614609635
517,1.792871369234567666081358961565
518,1.793262080554015891543593903565
519,1.793652058098998548576531097629
520,1.794041304996846923798111470920
521,1.794429824362876523145075018979
522,1.794817619300630618565493479452
523,1.795204692902124753336555731168
