Eigenstate,Potential Energy
1,0.500000000017856810498589296137340577
2,0.64623093776767452205280959272650341
3,0.73633761004736055298763083485237135
4,0.79966527852738652839440113591785156
5,0.8480465765210015706722692801853552
6,0.8870659987817945269331954653532294
7,0.9197208267474307542076652665231438
8,0.9477838467945940361131797368935265
9,0.9723835579294146465288866358352653
10,0.9942802143003723561761649326007799
11,1.0140093860484444582519187065011941
12,1.0319621684782164615029950386672249
13,1.0484326916554624895508460068407713
14,1.0636476532633002488694906497531822
15,1.0777854344163719557021998943211875
16,1.090988904531286981913518053655322
17,1.103374254788124716003409542657058
18,1.115037249136633124705159405700296
19,1.126057747400205817095709359923854
20,1.136503042909818142189324658637523
21,1.146430368585724148027785973285489
22,1.155888808096196572819339502951332
23,1.164920773794051406511011232847789
24,1.173563164117069987510948552518626
25,1.181848280383925352486689120471906
26,1.189804560601769959098206560253000
27,1.197457172428811503176387719384295
28,1.204828496533352744644266449223002
29,1.211938523795743436281915014945172
30,1.218805184150204881049329268517636
31,1.225444620717549144248830593015117
32,1.231871419801915362551433981757113
33,1.238098805014997788129715994264644
34,1.244138802040693940250717828119972
35,1.250002379213906171194319149717571
36,1.255699568053751074983945999644540
37,1.261239567087346619038904474105958
38,1.266630831669928135829442250261825
39,1.271881152009195662189187416561276
40,1.276997721205974330468537734426552
41,1.281987194806519242051877869555610
42,1.286855743106803652305335211040903
43,1.291609097242642951145929656936556
44,1.296252589931412907952373906104223
45,1.300791191593551080568678049543620
46,1.305229542468894005581662342007121
47,1.309571981249426174741697135532825
48,1.313822570672430438164419366208863
49,1.317985120453366931068610936194537
50,1.32206320788368490716388860723285
51,1.32606019637330489933920820456406
52,1.32997925217916341401210946218933
53,1.33382335952876224695961903581651
54,1.33759533432010337700152115122029
55,1.34129783655591490139990429667998
56,1.34493338164999890671801227701691
57,1.34850435072633320376608678638448
58,1.35201300001676166897406824012941
59,1.35546146945035398725859062285172
60,1.35885179051649108375174016804626
61,1.36218589347416830425648165732519
62,1.36546561397170739918190829549585
63,1.36869269913382647669240054591135
64,1.37186881316670461088399771135141
65,1.37499554252614295082954825957839
66,1.37807440068907683728113160920918
67,1.38110683256443114249324130878562
68,1.38409421857555488782241672360751
69,1.38703787844315852303281380124187
70,1.38993907469474898297380689773700
71,1.39279901592395893356493737262295
72,1.39561885982086837664422680674172
73,1.39839971599236377683263491952822
74,1.40114264858976102501503636561890
75,1.40384867875928745193530546409183
76,1.40651878692956854864808492515929
77,1.40915391494896265215189880036621
78,1.41175496808442105634822271133752
79,1.41432281689250418847901361256645
80,1.41685829897224636555090534725632
81,1.41936222060871230377770541062304
82,1.42183535831532710351944821466841
83,1.42427846028237269840663729867201
84,1.42669224773841946562224400418541
85,1.42907741623090241814038797211466
86,1.43143463683153553433136155288838
87,1.43376455727180030954279676146552
88,1.43606780301332123653112846086669
89,1.43834497825755741945602192291034
90,1.44059666689889630942116735230586
91,1.44282343342491409749418587109941
92,1.44502582376727900359925308575657
93,1.44720436610651144462045734185089
94,1.44935957163357213631578090336373
95,1.45149193527102802961262300855943
96,1.45360193635634415973934319606750
97,1.45569003928966514453770012362262
98,1.45775669414827719400638787242004
99,1.45980233726978802093670279597892
100,1.46182739180591570208535779532036
101,1.46383226824864823517494094337934
102,1.46581736493040996229147571487037
103,1.46778306849976311663563049330447
104,1.46972975437406548487373391445672
105,1.47165778717041210357785152038944
106,1.47356752111609814400045650653361
107,1.47545930043976205747383494450029
108,1.47733345974428881416995918412186
109,1.47919032436248447442241886534409
110,1.48103021069647091168692812711526
111,1.48285342654168364501840877422605
112,1.48466027139630630530918022854690
113,1.48645103675691972373870983247607
114,1.48822600640109487312902772648886
115,1.48998545665761844439735456117922
116,1.49172965666499150864925932072130
117,1.49345886861881000244889637139359
118,1.49517334800859474269731517752337
119,1.49687334384460496383352542543674
120,1.49855909887514352783802143120608
121,1.50023084979482369027424956462061
122,1.50188882744424839247070604578820
123,1.50353325700152085701436279846381
124,1.50516435816598758391744011027434
125,1.50678234533458527855647319710761
126,1.50838742777114804518501954887673
127,1.50997980976901060193498782152686
128,1.51155969080722068603165630828233
129,1.51312726570066174470936547435865
130,1.51468272474436862544758172428043
131,1.51622625385230357502896805113278
132,1.51775803469084487972028145461628
133,1.51927824480722869729300137867787
134,1.52078705775317335564167262574120
135,1.52228464320389728441550967516340
136,1.52377116707273805854844434426097
137,1.52524679162156672462917119368323
138,1.52671167556717796906218445696642
139,1.52816597418383458106517427199400
140,1.52960983940212921757987068390284
141,1.53104341990432191968348457688906
142,1.53246686121630375682078038554307
143,1.53388030579632832500759989400772
144,1.53528389312064564551954914895685
145,1.53667775976616882282060172758275
146,1.53806203949029595173534864537810
147,1.53943686330800156090264866277811
148,1.54080235956631292151512637675188
149,1.54215865401627302227463090617366
150,1.54350586988249385141661970935532
151,1.54484412793039590003260787205353
152,1.54617354653122418583524149214403
153,1.54749424172492974703382841164159
154,1.54880632728100050553616574209303
155,1.55010991475731973544277892030480
156,1.55140511355713000316955514191445
157,1.55269203098417362577476306138822
158,1.55397077229608146556395192684945
159,1.5552414407560737337782248602500
160,1.5565041376830391408756769969143
161,1.5577589625000508894970277626324
162,1.5590060127813789711868758912778
163,1.5602453842980536201399750515043
164,1.5614771710620345605375304569171
165,1.5627014653690346476612190589283
166,1.5639183578400484183437083683650
167,1.5651279374616327830451286086653
168,1.5663302916249825484390632471530
169,1.5675255061638458325686275595817
170,1.5687136653913191156583563541128
171,1.5698948521355621210126683950057
172,1.5710691477744703926288029359604
173,1.5722366322693409718249473510845
174,1.5733973841975670163674739158014
175,1.5745514807843953470002321793389
176,1.5756989979337766276986074130609
177,1.5768400102583414401557049630317
178,1.5779745911085314068667003003670
179,1.5791028126009118077269937446087
180,1.5802247456456966365129314417353
181,1.5813404599735087458009451386194
182,1.5824500241614027756802798461352
183,1.5835535056581739155029144477642
184,1.5846509708089767401763361982060
185,1.5857424848792759290920503368859
186,1.5868281120781498362786625847579
187,1.5879079155809707122462423891215
188,1.5889819575514770138056722914439
189,1.5900502991632615329197717950245
190,1.5911130006206909956298258577056
191,1.5921701211792763535750227935130
192,1.5932217191655101502726356841739
193,1.5942678519961892659712675706327
194,1.5953085761972363818234583901242
195,1.5963439474220380956994961572918
196,1.5973740204693133815049385312091
197,1.5983988493005267672848832533145
198,1.5994184870568603940558983659125
199,1.6004329860757577891809248900342
200,1.6014423979070532944478748731898
201,1.6024467733286981252305219602042
202,1.6034461623620964368427851171520
203,1.6044406142870620527681740969727
204,1.6054301776564074696257069859834
205,1.6064149003101751041840370887069
206,1.6073948293895238011205397909711
207,1.6083700113502764721505178058443
208,1.6093404919761430879309607287072
209,1.6103063163916247655661744037364
210,1.6112675290746104473140745656492
211,1.6122241738686735294492756487537
212,1.6131762939950786684048331597547
213,1.6141239320645031420802611737072
214,1.6150671300884877419991726959300
215,1.6160059294906164025408332888582
216,1.6169403711174385216959819096359
217,1.6178704952491379323819575714770
218,1.6187963416099574967597624025731
219,1.6197179493783825964816589297389
220,1.6206353571970960269895795518936
221,1.6215486031827021981465754005700
222,1.6224577249352378385591136273919
223,1.6233627595474627644135558061990
224,1.6242637436139457721171258386989
225,1.6251607132399482112778505442825
226,1.6260537040501087759561985605619
227,1.6269427511969381570266876982331
228,1.6278278893691253658405268161519
229,1.6287091527996628813242902505695
230,1.6295865752737953067426846192568
231,1.6304601901367933253794759453598
232,1.6313300303015633640408787183229
233,1.6321961282560879498691712508666
234,1.6330585160707129065157030829284
235,1.6339172254052745607563200448788
236,1.6347722875160766583003816065475
237,1.6356237332627206089029664664631
238,1.6364715931147907917735928132398
239,1.6373158971584003568432652010766
240,1.6381566751025996752881991396723
241,1.6389939562856517206396100543958
242,1.6398277696811772364102300073371
243,1.6406581439041737209905723623495
244,1.6414851072169099180307070841455
245,1.6423086875347001853976778284609
246,1.6431289124315612612550552439278
247,1.6439458091457528090289503130302
248,1.6447594045852093217932755940939
249,1.6455697253328583545680893768177
250,1.6463767976518354686300438301501
251,1.6471806474905937872401349708934
252,1.6479813004879109606817739997812
253,1.6487787819777986122055257662184
254,1.6495731169943139211306156360698
255,1.6503643302762772225257283443095
256,1.6511524462718957082289228005799
257,1.6519374891432996199439760285139
258,1.6527194827709873784649617543726
259,1.6534984507581864518724594084987
260,1.6542744164351303483987376150965
261,1.6550474028632520470119601558403
262,1.6558174328392985904443605797613
263,1.6565845288993656905439591969170
264,1.6573487133228577961005945880281
265,1.6581100081363721476713878629797
266,1.6588684351175089864355521365696
267,1.6596240157986111296080074621795
268,1.6603767714704329454083156331298
269,1.6611267231857429967813680403532
270,1.6618738917628560772913958465177
271,1.6626182977891039224228939152177
272,1.6633599616242385751296714466818
273,1.6640989034037758480233056401132
274,1.6648351430422760904954636293801
275,1.6655687002365661356301003174544
276,1.6662995944689007045345275986823
277,1.6670278450100707513797025582745
278,1.6677534709224505030737536300271
279,1.6684764910629946960136184760226
280,1.6691969240861781027606533563433
281,1.6699147884468852374436867223951
282,1.6706301024032477361377141887032
283,1.6713428840194326246448196259154
284,1.6720531511683786301926254226500
285,1.6727609215344873442907333937908
286,1.6734662126162652614706801010077
287,1.6741690417289217531803689714662
288,1.6748694260069193785891145363133
289,1.6755673824064811803473805370114
290,1.6762629277080556978084322483935
291,1.6769560785187375386322166026875
292,1.6776468512746463936578224090458
293,1.6783352622432684007990532876207
294,1.6790213275257548948574526380985
295,1.6797050630591806303776287076492
296,1.6803864846187690630846273835978
297,1.6810656078200746216078919325565
298,1.6817424481211312862228339886378
299,1.6824170208245642774451926789685
300,1.6830893410796666050608370041881
301,1.6837594238844408890060178817513
302,1.6844272840876085450078901041360
303,1.6850929363905835080909071492816
304,1.6857563953494140714557721433189
305,1.6864176753766942692339645123732
306,1.6870767907434440663148927279979
307,1.6877337555809555371954965330831
308,1.6883885838826125122781173655499
309,1.6890412895056797808784882340563
310,1.6896918861730621860873436867383
311,1.6903403874750372063851232572782
312,1.6909868068709585371390556542792
313,1.6916311576909320647282285792262
314,1.6922734531374660375671062659649
315,1.6929137062870947536671845139039
316,1.6935519300919771403756580226941
317,1.6941881373814677648928066558207
318,1.6948223408636656268100094757939
319,1.6954545531269378742268854151558
320,1.6960847866414184447028772173304
321,1.6967130537604855499743412596989
322,1.6973393667222141188645401280959
323,1.6979637376508067124229195747143
324,1.6985861785580018884297463318660
325,1.6992067013444617772438286452974
326,1.6998253178011371062168319422830
327,1.7004420396106124934259047256621
328,1.7010568783484291999165056504800
329,1.7016698454843903153101179221331
330,1.7022809523838448084397952225003
331,1.7028902103089518815863414673033
332,1.7034976304199266895354781344577
333,1.7041032237762678019902973966105
334,1.7047070013379645933410873476012
335,1.7053089739666888747035701156436
336,1.7059091524269668262556969669671
337,1.7065075473873341020976301185757
338,1.7071041694214751664651585178216
339,1.7076990290093429257820392890839
340,1.7082921365382647478700965410212
341,1.7088835023040305818725947904612
342,1.7094731365119656760190933794728
343,1.7100610492779875309991406679178
344,1.7106472506296470826297615641744
345,1.7112317505071559331297556983387
346,1.7118145587643971057734662143556
347,1.7123956851699228882609266640263
348,1.7129751394079365765068045738892
349,1.7135529310792616637507263687576
350,1.7141290697022960173076693027923
351,1.7147035647139531305409895347468
352,1.7152764254705901324011826295457
353,1.7158476612489218388873616880964
354,1.7164172812469222608867081175350
355,1.7169852945847139336544627463628
356,1.7175517103054432777021125413571
357,1.7181165373761452301179491969804
358,1.7186797846885963903064488394615
359,1.7192414610601524252712267983053
360,1.7198015752345786723467248869962
361,1.7203601358828656842338316417519
362,1.7209171516040361979262541884503
363,1.7214726309259381231274263127240
364,1.7220265823060285741389875161163
365,1.7225790141321471815754895292873
366,1.7231299347232775615623699147253
367,1.7236793523302998344159661366427
368,1.7242272751367309815223306104164
369,1.7247737112594576729491904674578
370,1.7253186687494572789549294222150
371,1.7258621555925099186927319126345
372,1.7264041797099005025785694972599
373,1.7269447489591107350278854646836
374,1.7274838711345053860299241837138
375,1.7280215539680035231193619705621
376,1.7285578051297461599504567857380
377,1.7290926322287521106740370212897
378,1.7296260428135652175187154513718
379,1.7301580443728947913677068419855
380,1.7306886443362460220858802013358
381,1.7312178500745432340224668756125
382,1.7317456689007431048493123387431
383,1.7322721080704425223854763761669
384,1.7327971747824760430986981191866
385,1.7333208761795065735275306550742
386,1.7338432193486099332658157158685
387,1.7343642113218490488340047651648
388,1.7348838590768417152231769513911
389,1.7354021695373225997847670979383
390,1.7359191495736966775577858885097
391,1.7364348060035844149601153138036
392,1.7369491455923623102056121350574
393,1.7374621750536962639181936598414
394,1.7379739010500663610237405684042
395,1.7384843301932859207762325064706
396,1.7389934690450144657693048464731
397,1.7395013241172642398238820194731
398,1.7400079018729002828696044944127
399,1.7405132087261326285938285881456
400,1.7410172510430049247980339780155
401,1.7415200351418755253640583278485
402,1.7420215672938917990285121129850
403,1.7425218537234604756872117120107
404,1.7430209006087119233015200748042
405,1.7435187140819558208333963918950
406,1.7440153002301343362254787730410
407,1.7445106650952699261278218781689
408,1.7450048146749052605471019336565
409,1.7454977549225381334762614348452
410,1.7459894917480538739648222828559
411,1.7464800310181495176288235600151
412,1.7469693785567533211708905522471
413,1.7474575401454406989514937601902
414,1.7479445215238430054377004267379
415,1.7484303283900534474730515034314
416,1.7489149664010265559829960785988
417,1.7493984411729740655834419089249
418,1.7498807582817543653095267388449
419,1.7503619232632597989577803355179
420,1.7508419416137967969439896139440
421,1.7513208187904627918416918801776
422,1.7517985602115191991844078408584
423,1.7522751712567582996524080134079
424,1.7527506572678676363490804093675
425,1.7532250235487883065071466548482
426,1.7536982753660707544449883255534
427,1.7541704179492255503820975294360
428,1.7546414564910691687813697776339
429,1.7551113961480686785841325599855
430,1.7555802420406782074229260178602
431,1.7560479992536746834440118589817
432,1.7565146728364900042320761967916
433,1.7569802678035349707113118013784
434,1.7574447891345260839374046668456
435,1.7579082417748030284310171016400
436,1.7583706306356447430194087980901
437,1.7588319605945822405315530913786
438,1.7592922364957071583861990347454
439,1.7597514631499767213523572759103
440,1.7602096453355161876699061986645
441,1.7606667877979159383569426471381
442,1.7611228952505267733241788725999
443,1.7615779723747530619643354512477
444,1.7620320238203383675602660736734
445,1.7624850542056528761428287427049
446,1.7629370681179736541189557462981
447,1.7633880701137649038099417613829
448,1.7638380647189514350720172868203
449,1.7642870564291931934738434760307
450,1.7647350497101529974420496673385
451,1.7651820489977649874381386161777
452,1.7656280586984966284838145812325
453,1.7660730831896100090750074417584
454,1.7665171268194188254009131289236
455,1.7669601939075446747083047589733
456,1.7674022887451679547766861728337
457,1.7678434155952780651781668465993
458,1.7682835786929193061840020190032
459,1.7687227822454349892090863109578
460,1.7691610304327094011017705866456
461,1.7695983274074054719689566608568
462,1.7700346772952013595510796315742
463,1.7704700841950245538819356243069
464,1.7709045521792816631025592666003
465,1.7713380852940878491279366079047
466,1.7717706875594930438258748984885
467,1.7722023629697042261866638257617
468,1.7726331154933087760860717121433
469,1.7730629490734913812999148656018
470,1.7734918676282520222719324451698
471,1.7739198750506193017022546875895
472,1.7743469752088634165282537890143
473,1.7747731719467041231596524048650
474,1.7751984690835211999209277192997
475,1.7756228704145563294140445502362
476,1.7760463797111189145651498686957
477,1.7764690007207861613085611467222
478,1.7768907371676021038536608874100
479,1.7773115927522744618743863338138
480,1.7777315711523697241574275634074
481,1.7781506760225050095388235534646
482,1.7785689109945402738689826486354
483,1.7789862796777662429564675150526
484,1.7794027856590908911969062791322
485,1.7798184325032259427140968947701
486,1.7802332237528679797566273205007
487,1.7806471629288810070813477726748
488,1.7810602535304750687582827364577
489,1.7814724990353841454437128895237
490,1.7818839029000411951119634634215
491,1.7822944685597524713916570969134
492,1.7827041994288697075535177465788
493,1.7831130989009601410169377197436
494,1.7835211703489754722708965590105
495,1.7839284171254179505583337901913
496,1.7843348425625068305961335302691
497,1.7847404499723408856999817355510
498,1.7851452426470609224131872171049
499,1.7855492238590097938041344759349
500,1.785952396860892041744721099047
501,1.786354764885928914018896509539
502,1.786756331148016211248603604250
503,1.787157098841876431566086677789
504,1.787557071143213056669943851853
505,1.787956251208859826524488448090
506,1.788354642176930732582065062261
507,1.788752247166968577342119273185
508,1.789149069280091739989866722975
509,1.789545111599137378783389250063
510,1.789940377188807123202684242986
511,1.790334869095808486708913511855
512,1.790728590348995900081403553403
513,1.791121543959509980839115949756
514,1.791513732920915714978756631013
515,1.791905160209339925097408939077
516,1.792295828783606235057792235506
517,1.792685741585368605756120918297
518,1.793074901539245227199702923900
519,1.793463311552949548660309990618
520,1.793850974517421303727842316397
521,1.794237893306954325315513184269
522,1.794624070779325426638932532521
523,1.795009509775920785149094032252
