Eigenstate,Potential Energy
1,0.500000000133863591729905680607895240
2,0.64623093852491008626222484978063621
3,0.73633761227169603295975141285780392
4,0.79966528316047217959589840775497904
5,0.8480465845465617995711272799296088
6,0.8870660112008384171816249851936581
7,0.9197208445691280225683890893845188
8,0.9477838710324789123545369422871748
9,0.9723835895996289296821614495851630
10,0.9942802544207812979140577662097559
11,1.0140094356381635444524570199805739
12,1.0319622285573475923039679502861868
13,1.0484327632449441678232685607001616
14,1.0636477373848233919477751613879122
15,1.0777855320923353077773704868372011
16,1.090989016784777413182261797266111
17,1.103374382642913722078539042759059
18,1.115037393617184202230732383216523
19,1.126057909531689343548638795113489
20,1.136503223718131561562552143095872
21,1.146430569097515992105191993354517
22,1.155889029338893312010510336721873
23,1.164921016795886427724281968859013
24,1.173563429907114199458524432852181
25,1.181848569992119057256540894333425
26,1.189804875058955725037582965738155
27,1.197457512766767842128768015792157
28,1.204828863784828445385726372485461
29,1.211938918994492441532011051982262
30,1.218805608331021621637216844520890
31,1.225445074916304263579765769057959
32,1.231871905055591779290046560016493
33,1.238099322361727056286315942287376
34,1.244139352519792874539680965773653
35,1.250002963865913712284781701558583
36,1.255700187920465374557447210351514
37,1.261240223211862328754703986964389
38,1.266631525096673887632998617881315
39,1.271881883783971730075481543961838
40,1.276998492375990465974474856400088
41,1.281988006420432677510756368324917
42,1.286856596214757267336154157016653
43,1.291609992896303599035990274084716
44,1.296253529184009899573603283865224
45,1.300792175499914824286432919189372
46,1.305230572085494802300320127345141
47,1.309573057634413167808563821586091
48,1.313823694885670718342768056690000
49,1.317986293556484797206944836886314
50,1.32206443094010128354489033080020
51,1.32606147044827691099886450373910
52,1.32998057833982412158480525327557
53,1.33382473884416054283591047431550
54,1.33759676786124404478750524975914
55,1.34129932539579884084477418762326
56,1.34493492686366352643373137782557
57,1.34850595339089298420293363974520
58,1.35201466121144889824161048354092
59,1.35546319025655967249399189113868
60,1.35885357201780604083997306685094
61,1.36218773675642442880019333377499
62,1.36546752012301912170445260086452
63,1.36869466924463240513646945482530
64,1.37187084832980936354161159823310
65,1.37499764383675918290819695272861
66,1.37807656924486746437504568753374
67,1.38110906946555176428994267448559
68,1.38409652492469641543278321554327
69,1.38704025534559001338868037981149
70,1.38994152325836068378988187428831
71,1.39280153725930554241429935880004
72,1.39562145504121251774579353343223
73,1.39840238621371969919863396876237
74,1.40114539493093852565369793707368
75,1.40385150234193602785135192256519
76,1.40652168887822178142939580680594
77,1.40915689639108282897685122821137
78,1.41175803015044403129338311349409
79,1.41432596071588448805219984731131
80,1.41686152568950254241897190834110
81,1.41936553135947254270415030979729
82,1.42183875424237508357107538219013
83,1.42428194253169371553401962569012
84,1.42669581745924681976370070844138
85,1.42908107457576406904472847824553
86,1.43143838495630103034019203684890
87,1.43376839633572799361962104689754
88,1.43607173417910573387064227039786
89,1.43834900269137741105399574214932
90,1.44060078577046259603264595358500
91,1.44282764790751795845604738692630
92,1.44503013503784085504102975899017
93,1.44720877534562980163698162905969
94,1.44936408002557288372457635465258
95,1.45149654400401400596951045467370
96,1.45360664662224505933644212879030
97,1.45569485228428774216046150057352
98,1.45776161107135589727778523499934
99,1.45980735932503575513096872991119
100,1.46183252020107513234686217006731
101,1.46383750419554333113330442735393
102,1.46582270964499791011919775907371
103,1.46778852320218658365105904607409
104,1.46973532028870524185025262349597
105,1.47166346552594000997756824078244
106,1.47357331314553050141044485626556
107,1.47546520738051333658303375929951
108,1.47733948283822576068584506992970
109,1.47919646485598059938882021071426
110,1.48103646984046137172741902365991
111,1.48285980559172051809355253173190
112,1.48466677161261426764160740908156
113,1.48645765940445213362583500036233
114,1.48823275274959026743049479086559
115,1.48999232798165745355308243315836
116,1.49173665424405419615319536084433
117,1.49346599373733363477429751555888
118,1.49518060195603199574139851034136
119,1.49688072791548257202226932252408
120,1.49856661436912138210614533732514
121,1.50023849801675439121114693313233
122,1.50189660970423726499938802433783
123,1.50354117461498643304909823654390
124,1.50517241245372255952441210359169
125,1.50679053762281795222322057625656
126,1.50839575939160424388598112569936
127,1.50998828205897610176374617762422
128,1.51156830510960413425577310552275
129,1.51313602336405809018954793905909
130,1.51469162712312306445046013376189
131,1.51623530230657601955226564882287
132,1.51776723058667495553994559282831
133,1.51928758951660127903311037382570
134,1.52079655265408464626276523359599
135,1.52229428968042144661197441364265
136,1.52378096651509440564178836341728
137,1.52525674542618747864363473711897
138,1.52672178513677659376885406272541
139,1.52817624092747469788261197905911
140,1.52962026473529411232345766438314
141,1.53105400524898464826013714850643
142,1.53247760800099785807412505784261
143,1.53389121545621914902680110407828
144,1.53529496709760230583650855134190
145,1.53668899950883678103249957341755
146,1.53807344645417024320471022755313
147,1.53944843895550067030379555446745
148,1.54081410536685331711394779343042
149,1.54217057144634435795041870061144
150,1.54351796042573484555604539251070
151,1.54485639307767090055262797351609
152,1.54618598778070043071723732553720
153,1.54750686058215532988134002650929
154,1.54881912525898305579971624227361
155,1.55012289337660582308931933061739
156,1.55141827434588527770994468095786
157,1.55270537547826369970118310425866
158,1.55398430203915355239018258863202
159,1.5552551572996390510181310789200
160,1.5565180425865560884424744023550
161,1.5577730573310090141526799725237
162,1.5590202991153837278232276795638
163,1.5602598637189119408252972389488
164,1.5614918451618412424196610573316
165,1.5627163357482595709769925486930
166,1.5639334261076246059459459922977
167,1.5651432052350453130224265981739
168,1.5663457605303583315730083589547
169,1.5675411778360442665412307707027
170,1.5687295414740236280973291888536
171,1.5699109342813726136385247726172
172,1.5710854376449965989469755157141
173,1.5722531315352967409885328571972
174,1.5734140945388655360240367660162
175,1.5745684038902453181233162052446
176,1.5757161355027794045987790692738
177,1.5768573639985891490616866419678
178,1.5779921627377060566665949842628
179,1.5791206038463854066634049511910
180,1.5802427582446323288325595924598
181,1.5813586956729629825696830949072
182,1.5824684847184285341892252214004
183,1.5835721928399249819097500079823
184,1.5846698863928130702475464491401
185,1.5857616306528701021397982594247
186,1.5868474898395946176135975139593
187,1.5879275271388877397049547759888
188,1.5890018047251266241490497856278
189,1.5900703837826537441415857997684
190,1.5911333245266976614630712192237
191,1.5921906862237445067358228980221
192,1.5932425272113765512380188609141
193,1.5942889049175961743491974819743
194,1.5953298758796485676389261508366
195,1.5963654957623611081933000619389
196,1.5973958193760130933169668040277
197,1.5984209006937502121759088934188
198,1.5994407928685579166079177195693
199,1.6004555482498065252091551230380
200,1.6014652183993820011544615995587
201,1.6024698541074133804319071757084
202,1.6034695054076102269150367876352
203,1.6044642215922207692646790023148
204,1.6054540512266223348456256566729
205,1.6064390421635540462943250512860
206,1.6074192415570047997684743934317
207,1.6083946958757623958417504084393
208,1.6093654509166380447942196110915
209,1.6103315518173719894778579802554
210,1.6112930430692317417139655913769
211,1.6122499685293102915448266234637
212,1.6132023714325345168339641824595
213,1.6141502944033881714833358114672
214,1.6150937794673644283356218934965
215,1.6160328680621471833832876020455
216,1.6169676010485350761349447354250
217,1.6178980187211121855849835572205
218,1.6188241608186743746464630621738
219,1.6197460665344145564032712706826
220,1.6206637745258793907343830216947
221,1.6215773229246953140369850900462
222,1.6224867493460810998570650807807
223,1.6233920908981405117114749052901
224,1.6242933841909501078611853431563
225,1.6251906653454447550498558374291
226,1.6260839700021043896277940782083
227,1.6269733333294506693973184494806
228,1.6278587900323553268802523810671
229,1.6287403743601673766589661268581
230,1.6296181201146638635476872946763
231,1.6304920606578259413876444335040
232,1.6313622289194506919202070868938
233,1.6322286574045936697856754137913
234,1.6330913782008583202707577805260
235,1.6339504229855254414697767076315
236,1.6348058230325323902073951845234
237,1.6356576092193056524404167983856
238,1.6365058120334485097513739536765
239,1.6373504615792892381287607808380
240,1.6381915875842919930791184255155
241,1.6390292194053346630576624632925
242,1.6398633860348565478212600928524
243,1.6406941161068798931447435544602
244,1.6415214379029069708147745578856
245,1.6423453793576970777078402881048
246,1.6431659680649259732303974977913
247,1.6439832312827291376274466491353
248,1.6447971959391364324565551844014
249,1.6456078886373931324962182692097
250,1.6464153356611777139817662572279
251,1.6472195629797142993841845439069
252,1.6480205962527825574503224817803
253,1.6488184608356301309472013644840
254,1.6496131817837872492235181809939
255,1.6504047838577874058890392934149
256,1.6511932915277941872750135213045
257,1.6519787289781406433298332478993
258,1.6527611201117776459407228969293
259,1.6535404885546380384846525679148
260,1.6543168576599169632852102311117
261,1.6550902505122686810258812014150
262,1.6558606899319246078689049317694
263,1.6566281984787314212018773583000
264,1.6573927984561146852335197593261
265,1.6581545119149665220526288352441
266,1.6589133606574594962959836166077
267,1.6596693662407899270945261771667
268,1.6604225499808506614590290379727
269,1.6611729329558375794931093710333
270,1.6619205360097855560702184607949
271,1.6626653797560431634542679359834
272,1.6634074845806800949764210416041
273,1.6641468706458347534599949886344
274,1.6648835578929992140165579331499
275,1.6656175660462454374301778839477
276,1.6663489146153910131480753144409
277,1.6670776228991119165909635471515
278,1.6678037099879940361595392937766
279,1.6685271947675349738704586978123
280,1.6692480959210882139886712532143
281,1.6699664319327575500151969328476
282,1.6706822210902392678707171693586
283,1.6713954814876152993292843133452
284,1.6721062310280945038848481796215
285,1.6728144874267088879955067028861
286,1.6735202682129607881738666933172
287,1.6742235907334260789819022895864
288,1.6749244721543098095118126174340
289,1.6756229294639589182664224116465
290,1.6763189794753327608624494687078
291,1.6770126388284292934318600009585
292,1.6777039239926697986163238210693
293,1.6783928512692460619610509790507
294,1.6790794367934250377062250815056
295,1.6797636965368130932453437201812
296,1.6804456463095874200052100181619
297,1.6811253017626845447005968472697
298,1.6818026783899552600059452642350
299,1.6824777915302827798513595760337
300,1.6831506563696658723444758547391
301,1.6838212879432673842206298853980
302,1.6844897011374302522708666480621
303,1.6851559106916581774640969903052
304,1.6858199312005645419378107280489
305,1.6864817771157910000972500889499
306,1.6871414627478950098237647752302
307,1.6877990022682034886167038706112
308,1.6884544097106400760366403880705
309,1.6891076989735220947343647012332
310,1.6897588838213275483003110869812
311,1.6904079778864357540056607169743
312,1.6910549946708391268182916135815
313,1.6916999475478275107714928900382
314,1.6923428497636468653739363499591
315,1.6929837144391316302081231086047
316,1.6936225545713121469495830153112
317,1.6942593830349946810981079526738
318,1.6948942125843193984421069515826
319,1.6955270558542934416966792858464
320,1.6961579253622991125493279239367
321,1.6967868335095810821276413102199
322,1.6974137925827087485093153319233
323,1.6980388147550172596042165842977
324,1.6986619120880261829643863832932
325,1.6992830965328375890200744519736
326,1.6999023799315117896203956443994
327,1.7005197740184235573951084984396
328,1.7011352904215960200337108118577
329,1.7017489406640172093586537730581
330,1.7023607361649357020240418396951
331,1.7029706882411367957116274909482
332,1.7035788081082002874906604225966
333,1.7041851068817402384689401269776
334,1.7047895955786249144799645339662
335,1.7053922851181812236166728500371
336,1.7059931863233797147082954063999
337,1.7065923099220030151882479047838
338,1.7071896665477987735881382558768
339,1.7077852667416131777159376797043
340,1.7083791209525111465959881778074
341,1.7089712395388789166801431931766
342,1.7095616327695115265912474117425
343,1.7101503108246848455143862108990
344,1.7107372837972121464662471647154
345,1.7113225616934870515167146268444
346,1.7119061544345103317160683245664
347,1.7124880718569041352792289232160
348,1.7130683237139104641638133942715
349,1.7136469196763774526335914828404
350,1.7142238693337309990638562354680
351,1.7147991821949338477593428896061
352,1.7153728676894318125869046019332
353,1.7159449351680864365189548602424
354,1.7165153939040955115599244276873
355,1.7170842530939018346243436146560
356,1.7176515218580884197634510484438
357,1.7182172092422634166794312457841
358,1.7187813242179339907783920035319
359,1.7193438756833649214709783835078
360,1.7199048724644308685600852029464
361,1.7204643233154540638654062232126
362,1.7210222369200339223352047609972
363,1.7215786218918631812904805792798
364,1.7221334867755356052232082566276
365,1.7226868400473435063607246566695
366,1.7232386901160639729223672518702
367,1.7237890453237367117826840743503
368,1.7243379139464303094302566264006
369,1.7248853041950015593910580131895
370,1.7254312242158435854017406837536
371,1.7259756820916256302630377082209
372,1.7265186858420234839870181696906
373,1.7270602434244405356311244556467
374,1.7276003627347237755378242555902
375,1.7281390516078654583607982338154
376,1.7286763178187019025116787764342
377,1.7292121690826012352775864129603
378,1.7297466130561432716953904516957
379,1.7302796573377933883375134504677
380,1.7308113094685671708163889183034
381,1.7313415769326887332003846460208
382,1.7318704671582398510059569387762
383,1.7323979875178046067164510265020
384,1.7329241453291045365873486771527
385,1.7334489478556279259042798299554
386,1.7339724023072539381123218156819
387,1.7344945158408673548014945245675
388,1.7350152955609678919463299035713
389,1.7355347485202747966202623071156
390,1.7360528817203239438458163614010
391,1.7365697021120577821011726332696
392,1.7370852165964117685248474135494
393,1.7375994320248948010879582441394
394,1.7381123552001622637710935721319
395,1.7386239928765845777790351341424
396,1.7391343517608109470702539952703
397,1.7396434385123279668218140123762
398,1.7401512597440131430434919498527
399,1.7406578220226819306135570496705
400,1.7411631318696326326575489045158
401,1.7416671957611852546645072041626
402,1.7421700201292151046271952450048
403,1.7426716113616840076836313836974
404,1.7431719758031670777807415178979
405,1.7436711197553725630543808397429
406,1.7441690494776609270620090288715
407,1.7446657711875603376287227062519
408,1.7451612910612761235760193890913
409,1.7456556152341971195810260186779
410,1.7461487498014014750269580985919
411,1.7466407008181562505115914346215
412,1.7471314743004144506558182711147
413,1.7476210762253106408113307621309
414,1.7481095125316516426275052733046
415,1.7485967891204066662884473012743
416,1.7490829118551933856892367212307
417,1.7495678865627628846508063597913
418,1.7500517190334807200734263569880
419,1.7505344150218084664264944477322
420,1.7510159802467808127162025390346
421,1.7514964203924822568438719561967
422,1.7519757411085227753368695746519
423,1.7524539480105104047887664615951
424,1.7529310466805244529140757556698
425,1.7534070426675858269253155464111
426,1.7538819414881281987993654287298
427,1.7543557486264676093144841992711
428,1.7548284695352706465877917383307
429,1.7553001096360252385301464549367
430,1.7557706743195070535567581483653
431,1.7562401689462491509181746111835
432,1.7567085988470121735897936871215
433,1.7571759693232505710343886332276
434,1.7576422856475861054609996473832
435,1.7581075530642766275142890191222
436,1.7585717767896881915471835909573
437,1.7590349620127688482086376535320
438,1.7594971138955232803641792682621
439,1.7599582375734891555476951379337
440,1.7604183381562164663685251413472
441,1.7608774207277472277078588700823
442,1.7613354903470993124845716122779
443,1.7617925520487543014776806935888
444,1.7622486108431442044816613901870
445,1.7627036717171466319840134292979
446,1.7631577396345797014420137509193
447,1.7636108195367041187688227174304
448,1.7640629163427259370642300223304
449,1.7645140349503081298721813037118
450,1.7649641802360834418906909845509
451,1.7654133570561763450693838879759
452,1.7658615702467272814433324260729
453,1.7663088246244252917039390936991
454,1.7667551249870457911962824214529
455,1.7672004761139975076386797076724
456,1.7676448827668742866642363255202
457,1.7680883496900168896244611443618
458,1.7685308816110816290845707071066
459,1.7689724832416188272995628399174
460,1.7694131592776612345281924070887
461,1.7698529144003207757888870590454
462,1.7702917532763973837690410207467
463,1.7707296805589990935265120539789
464,1.7711667008881721605285484361632
465,1.7716028188915458018277503535553
466,1.7720380391849893543036489340174
467,1.7724723663732818277636632903105
468,1.7729058050507996018429987287181
469,1.7733383598022155148817213278767
470,1.7737700352032176811498286446941
471,1.7742008358212431582787495944210
472,1.7746307662162316626125763512115
473,1.7750598309413956315825513036715
474,1.7754880345440151365108443233320
475,1.7759153815662476221257167558146
476,1.7763418765459660977483720827147
477,1.7767675240176172854431605665231
478,1.7771923285131056384541013447811
479,1.7776162945627034257191124553229
480,1.7780394266959886569686327479566
481,1.7784617294428108574758461903597
482,1.7788832073342898026812420851124
483,1.7793038649038442228485126064415
484,1.7797237066882550222440513675853
485,1.7801427372287663151850261507914
486,1.7805609610722207967458251307411
487,1.7809783827722383446881698901220
488,1.7813950068904346192951590998104
489,1.7818108379976851903318043869256
490,1.7822258806754354951682490495145
491,1.7826401395170613527830916586100
492,1.7830536191292813723600481580996
493,1.7834663241336241532738400585861
494,1.7838782591679544758327932642639
495,1.7842894288880599771985383786913
496,1.7846998379693050697879559992751
497,1.7851094911083515266881875710789
498,1.7855183930249536613179167241038
499,1.7859265484638298415453507316591
500,1.786333962196616991968045342002
501,1.786740639023908655312486231412
502,1.787146583777389217506190560956
503,1.787551801322061263538791937199
504,1.787956296558579783488066051569
505,1.788360074425692357873526875479
506,1.788763139902797772232733099000
507,1.789165498012628101913378912595
508,1.789567153824061611216329776957
509,1.789968112455072954567380834137
510,1.790368379075835587928515429514
511,1.790767958911979123996049543678
512,1.791166857248015735659942657778
513,1.791565079430945188748307866657
514,1.791962630874050971746661793442
515,1.792359517060900585168529155935
516,1.792755743549561864547636571488
517,1.793151315977051136474860178597
518,1.793546240064030872935375890208
519,1.793940521619770764919459527796
520,1.794334166547393584583461760998
521,1.794727180849422642767966245871
522,1.795119570633656768066076631481
523,1.795511342119392686475840950962
