Eigenstate,Potential Energy
1,0.500000000095477540660655960715368893
2,0.64623093827434383541909330753711884
3,0.73633761153566824820033833799374912
4,0.79966528162738283427822660020916973
5,0.8480465818908765996113634977750749
6,0.8870660070912873279995730904251351
7,0.9197208386717201803986978191186459
8,0.9477838630117545473872178215926812
9,0.9723835791192365306615394471654189
10,0.9942802411437659570457820385668229
11,1.0140094192271193322794523077281835
12,1.0319622086745006374048993502336921
13,1.0484327395521980049793614981784492
14,1.0636477095437825886869937013546955
15,1.0777854997643159795088823126706254
16,1.090988979630809495122025290563184
17,1.103374340323737871708404472994830
18,1.115037345793245093406408299206679
19,1.126057855863126467441884604630395
20,1.136503163864768261239003297214259
21,1.146430502718847216635988057300948
22,1.155888956094072422389570489430706
23,1.164920936343711286428032930891196
24,1.173563341906012708336650122930893
25,1.181848474100134262628710570919361
26,1.189804770933730577031642916092321
27,1.197457400065529672792141765724148
28,1.204828742164373213948903475425666
29,1.211938788111168783442799244335499
30,1.218805467840714729309339781377287
31,1.225444924474419620321767212676789
32,1.231871744317038762988858627188300
33,1.238099150980902425686739644437395
34,1.244139170150564148083890005129808
35,1.250002770161602447237902637002716
36,1.255699982533830352389122069597073
37,1.261240005795082651357050753797893
38,1.266631295301331987847457396385987
39,1.271881641261036299110907471693633
40,1.276998236775799299578565167386581
41,1.281987737392675442170076482277290
42,1.286856313408458187298655386507042
43,1.291609695959804064552466943043528
44,1.296253217764950996424372322379315
45,1.300791849245219784383310099871702
46,1.305230230641351374921661253219943
47,1.309572700646255910828406728408008
48,1.313823321998163208647398607139743
49,1.317985904413501759348514445132689
50,1.32206402518471063555765119355667
51,1.32606104772272172619569798464225
52,1.32998013828550450505751823605270
53,1.33382428110161542129974811199666
54,1.33759629207013286833666662845509
55,1.34129883119488319511999725549798
56,1.34493441389078865364387213139683
57,1.34850542128296921138892165175988
58,1.35201410960443297112211651488813
59,1.35546261878543599318737182136697
60,1.35885298031656780771527930773822
61,1.36218712445805467667128956001112
62,1.36546688685947166054474341495919
63,1.36869401464681265545730917792867
64,1.37187017202755508654470671041736
65,1.37499694545882110349077314426423
66,1.37807584841888978503645044567166
67,1.38110832581805256795902064412914
68,1.38409575808104795520687779209545
69,1.38703946492999888714720744871594
70,1.38994070889384789161824433660454
71,1.39280069856768642474673668790002
72,1.39562059164307657210940627362325
73,1.39840149772841027341405478884597
74,1.40114448097653238532183857471646
75,1.40385056253522279592922988834445
76,1.40652072283468324767194171701007
77,1.40915590372487212699519370675163
78,1.41175701047436468095378936945362
79,1.41432491364136930091313175121718
80,1.41686045082659238787737541546735
81,1.41936442831679497249460478561492
82,1.42183762262712281223485777625508
83,1.42428078194960295444712336213007
84,1.42669462751457546228540664051443
85,1.42907985487126972432012677155681
86,1.43143713509321890326156569340258
87,1.43376711591374860842272689766749
88,1.43607042279635249881280104286566
89,1.43834765994438402159118216810557
90,1.44059941125415027388272733099795
91,1.44282624121517252390467474474267
92,1.44502869576108962981585977097733
93,1.44720730307441833964424753892733
94,1.44936257434814152691018892093636
95,1.45149500450687426253422105026423
96,1.45360507289015580150182633044130
97,1.45569324390023122064848516985025
98,1.45775996761651356963315390755751
99,1.45980568037876392498025285953726
100,1.46183080534088039665348249501191
101,1.46383575299705783247133378440761
102,1.46582092168195439095266095744815
103,1.46778669804639323956823393551251
104,1.46973345751002037066461870697796
105,1.47166156469224645356888960290612
106,1.47357137382270987714031735200411
107,1.47546322913242005507940042049611
108,1.47733746522666082675076329020329
109,1.47919440744066519274255859292914
110,1.48103437217901020426002539196361
111,1.48285766723961496425280022689821
112,1.48466459212317526454254088684643
113,1.48645543832881284742321087293359
114,1.48823048963666852245090551810305
115,1.48999002237812792063735698805608
116,1.49173430569432033661363745755640
117,1.49346360178349939632414266172053
118,1.49517816613787325670555662110765
119,1.49687824777041833008952372874676
120,1.49856408943218468383363574809521
121,1.50023592782056299844063424295497
122,1.50189399377896405429388787883491
123,1.50353851248832952420560108006380
124,1.50516970365087516916529912705315
125,1.50678778166643796841450775550801
126,1.50839295580178351767518872361832
127,1.50998543035320945147428334821976
128,1.51156540480275805831687633518670
129,1.51313307396833918422316808237806
130,1.51468862814804613827673629867759
131,1.51623225325893190971513538364100
132,1.51776413097049802889277639044557
133,1.51928443883313662286193339774111
134,1.52079335040175494036098252522072
135,1.52229103535479351265539673712023
136,1.52377765960884542914741970897820
137,1.52525338542907089872808673067274
138,1.52671837153558765585421488756369
139,1.52817277320601566442792495450974
140,1.52961674237433912658909663251371
141,1.53105042772624424604088607390118
142,1.53247397479108312226265187001099
143,1.53388752603060550179516509010852
144,1.53529122092459293314706944788898
145,1.53668519605352568411234172692199
146,1.53806958517840491153898684243951
147,1.53944451931784437062296259185663
148,1.54081012682254699276875182328338
149,1.54216653344726813298481590859314
150,1.54351386242036912770426225364708
151,1.54485223451105707729978984074093
152,1.54618176809440115247580747020758
153,1.54750257921421437424614747073341
154,1.54881478164388476675351119964174
155,1.55011848694523411893791529314635
156,1.55141380452548222143257965493324
157,1.55270084169238762530462548923741
158,1.55397970370763674075816063647439
159,1.5552504938385449486482733779389
160,1.5565133134081360623607571800613
161,1.5577682618436586361933678626258
162,1.5590154367235985813559470726005
163,1.5602549338232429429048827692871
164,1.5614868471588494742248921377233
165,1.5627112690304706092934257704454
166,1.5639282900634823483346042209918
167,1.5651379992488652892022260947739
168,1.5663404839822804934255653323290
169,1.5675358301019852490287180596530
170,1.5687241219256284732621106351057
171,1.5699054422859659497284980570059
172,1.5710798725655332665849224355793
173,1.5722474927303118581755495333372
174,1.5734083813624239936347494638622
175,1.5745626156918906974183094667377
176,1.5757102716274823081429200228211
177,1.5768514237866949362987906354772
178,1.5779861455248819752592486912076
179,1.5791145089635671105632204166928
180,1.5802365850179697738995139886419
181,1.5813524434237656904094271729432
182,1.5824621527631102147255234807631
183,1.5835657804899475050534827139891
184,1.5846633929546297768662668181078
185,1.5857550554278684443700277145396
186,1.5868408321240381183945150637787
187,1.5879207862238572612441870722271
188,1.5889949798964609348608107951629
189,1.5900634743208893734240261896170
190,1.5911263297070080315036393657625
191,1.5921836053158783303537804420705
192,1.5932353594795954845880948613577
193,1.5942816496206117131232296803791
194,1.5953225322705581752111728511063
195,1.5963580630885835639591761887003
196,1.5973882968792230492769637285401
197,1.5984132876098119456127005642719
198,1.5994330884274582664987710145721
199,1.6004477516755869998044465362989
200,1.6014573289100700439378138697887
201,1.6024618709149527814591285878869
202,1.6034614277177906663040831048008
203,1.6044560486046064793822428645021
204,1.6054457821344798675025684159797
205,1.6064306761537791310249928654870
206,1.6074107778100482790276132722173
207,1.6083861335655552227054476338685
208,1.6093567892105153284996877545228
209,1.6103227898759960738803033203933
210,1.6112841800465143014767650229469
211,1.6122410035723334306122117641076
212,1.6131933036814708534629063670307
213,1.6141411229914198938324333624430
214,1.6150845035206013043265483420731
215,1.6160234866995435082589591567996
216,1.6169581133818055408451219720063
217,1.6178884238546466488269096352726
218,1.6188144578494515210815217601309
219,1.6197362545519144232563817384012
220,1.6206538526119947446624090608340
221,1.6215672901536418598255902238608
222,1.6224766047843065021714671600438
223,1.6233818336042322107861517061750
224,1.6242830132155419096657578840294
225,1.6251801797311221761130608869797
226,1.6260733687833087363397675963297
227,1.6269626155323818312398633584521
228,1.6278479546748732626573122871790
229,1.6287294204516922724137131278399
230,1.6296070466560749404590500092541
231,1.6304808666413588915373786636550
232,1.6313509133285937194098427032340
233,1.6322172192139821142651254483782
234,1.6330798163761678395103504046306
235,1.6339387364833637291718531797871
236,1.6347940108003294048058551834650
237,1.6356456701952023321805021399904
238,1.6364937451461839488766595764487
239,1.6373382657480862985257338266154
240,1.6381792617187413252428802948226
241,1.6390167624052771097470340039280
242,1.6398507967902639032627857106139
243,1.6406813934977339901262037370691
244,1.6415085807990770674805207458688
245,1.6423323866188155153252790134315
246,1.6431528385402620756435816159462
247,1.6439699638110613225501445090170
248,1.6447837893486225041768902767856
249,1.6455943417454387249755903399841
250,1.6464016472743028527272566320928
251,1.6472057318934180498556201326088
252,1.6480066212514057271333092269185
253,1.6488043406922159915781588092623
254,1.6495989152599402449931330569978
255,1.6503903697035298127774298629552
256,1.6511787284814206879819699395429
257,1.6519640157660707815588354294134
258,1.6527462554484061230754398184359
259,1.6535254711421828149590597758264
260,1.6543016861882651261950930322165
261,1.6550749236588200387596468018998
262,1.6558452063614329717450956739180
263,1.6566125568431435332971501616843
264,1.6573769973944067507573544259578
265,1.6581385500529783037832405096192
266,1.6588972366077259277280052260315
267,1.6596530786023702000650610028487
268,1.6604060973391547431159973876610
269,1.6611563138824501125443493119489
270,1.6619037490622870953063639703566
271,1.6626484234778287005693489154138
272,1.6633903575007748227192670369182
273,1.6641295712787070191351186214892
274,1.6648660847383706113156347241173
275,1.6655999175888979845113897310275
276,1.6663310893249713637937097502907
277,1.6670596192299325501587568604908
278,1.6677855263788313709040685153112
279,1.6685088296414243470427936149398
280,1.6692295476851156709265912747626
281,1.6699476989778483832131043876522
282,1.6706633017909432457635969990087
283,1.6713763742018885232417939943457
284,1.6720869340970778302807260354512
285,1.6727949991745028518160748272661
286,1.6735005869463969616749977599425
287,1.6742037147418347990630448907365
288,1.6749043997092842050854585778143
289,1.6756026588191151677303977422382
290,1.6762985088660665082165277504521
291,1.6769919664716681500256511387796
292,1.6776830480866218559149216913227
293,1.6783717699931443390798916349267
294,1.6790581483072677857891201991099
295,1.6797421989810998770448423562676
296,1.6804239378050508952539359570400
297,1.6811033804100178480627196195135
298,1.6817805422695349265449034146906
299,1.6824554387018871010468255206198
300,1.6831280848721886057491476886635
301,1.6837984957944267238476393064851
302,1.6844666863334729667577224870111
303,1.6851326712070588209557806697192
304,1.6857964649877196404796717653953
305,1.6864580821047081141184025084196
306,1.6871175368458765710239852602964
307,1.6877748433595253072455228777000
308,1.6884300156562244121674979740007
309,1.6890830676106051846874535221920
310,1.6897340129631214748549997056274
311,1.6903828653217845464679495388513
312,1.6910296381638689743597886934226
313,1.6916743448375909697418802076569
314,1.6923169985637609385005446597413
315,1.6929576124374095927349159940330
316,1.6935961994293889918293101591066
317,1.6942327723879460523323323896368
318,1.6948673440402738785697959968204
319,1.6954999269940380562482679525971
320,1.6961305337388779110167144160187
321,1.6967591766478866516445581758973
322,1.6973858679790665129910590252713
323,1.6980106198767624135532863883573
324,1.6986334443730731055111522402758
325,1.6992543533892415800329302911967
326,1.6998733587370229658739699931743
327,1.7004904721200327428454519265225
328,1.7011057051350724601853640541180
329,1.7017190692734379355508818799636
330,1.7023305759222063671670718840596
331,1.7029402363655037986069584930092
332,1.7035480617857539983382058765386
333,1.7041540632649091335080809867661
334,1.7047582517856604229225698424675
335,1.7053606382326330851100568315518
336,1.7059612333935616404970713255175
337,1.7065600479604484409416747894291
338,1.7071570925307064864976876920314
339,1.7077523776082825949581151622691
340,1.7083459136047670165863968946836
341,1.7089377108404852087033258722063
342,1.7095277795455742683969751472117
343,1.7101161298610436622808636898625
344,1.7107027718398202481781991715005
345,1.7112877154477794092562234476631
346,1.7118709705647597766256906272203
347,1.7124525469855651070130214791005
348,1.7130324544209501285057886017843
349,1.7136107024985939005959943278274
350,1.7141873007640582322063815866836
351,1.7147622586817332466607588975888
352,1.7153355856357697773674206254669
353,1.7159072909309978800202289366913
354,1.7164773837938328772606789971076
355,1.7170458733731693025786236393571
356,1.7176127687412609547781119652480
357,1.7181780788945903036192105784320
358,1.7187418127547264922457649326902
359,1.7193039791691676831959915740052
360,1.7198645869121766875950047347640
361,1.7204236446856016241337998699826
362,1.7209811611196880912011067797162
363,1.7215371447738774495946059058335
364,1.7220916041375962416595738695410
365,1.7226445476310349851249249359733
366,1.7231959836059152212468730064656
367,1.7237459203462477112657943806655
368,1.7242943660690785719451083214425
369,1.7248413289252279848272539877536
370,1.7253868170000171945199801567735
371,1.7259308383139866515167613912497
372,1.7264734008236042582760272712969
373,1.7270145124219636875718876252807
374,1.7275541809394770839569892509229
375,1.7280924141445528423167510157295
376,1.7286292197442699222083304587041
377,1.7291646053850404897278948330305
378,1.7296985786532640569123574664071
379,1.7302311470759749611429133349752
380,1.7307623181214799440401966563576
381,1.7312920991999887080819604726862
382,1.7318204976642345719793027689876
383,1.7323475208100899024115002618432
384,1.7328731758771712888277028190009
385,1.7333974700494380856590880250549
386,1.7339204104557849837589911916419
387,1.7344420041706243636485267506701
388,1.7349622582144623706961441809520
389,1.7354811795544693903232786403030
390,1.7359987751050421158430138113896
391,1.7365150517283575294571633710496
392,1.7370300162349224084673275860435
393,1.7375436753841158339620163863552
394,1.7380560358847232869464743137694
395,1.7385671043954651927609906767115
396,1.7390768875255195687300260023209
397,1.7395853918350384091357028310025
398,1.7400926238356578199380129507619
399,1.7405985899910004734445474289095
400,1.7411032967171746874060799839745
401,1.7416067503832661821033930567296
402,1.7421089573118232654071374445609
403,1.7426099237793382714482082951332
404,1.7431096560167231510082698070124
405,1.7436081602097766842480637619047
406,1.7441054424996494300998849411336
407,1.7446015089833035344960778446472
408,1.7450963657139649062177995757313
409,1.7455900187015706271939452360539
410,1.7460824739132141176263134618768
411,1.7465737372735823220342167543995
412,1.7470638146653885050362223568351
413,1.7475527119298017423432021591013
414,1.7480404348668695373917404084017
415,1.7485269892359378543538165958175
416,1.7490123807560650041138292738758
417,1.7494966151064322388594394143284
418,1.7499796979267482258819795990400
419,1.7504616348176516866621121403586
420,1.7509424313411071909528108536331
421,1.7514220930207980660402179657990
422,1.7519006253425157110269129151646
423,1.7523780337545431607453919719541
424,1.7528543236680365217463253459909
425,1.7533295004574006686833956393617
426,1.7538035694606628171713886762859
427,1.7542765359798414672436814329782
428,1.7547484052813107408688140540538
429,1.7552191825961640359864879340317
430,1.7556888731205698695197682722678
431,1.7561574820161274236932837300565
432,1.7566250144102189561529811145042
433,1.7570914753963544230972550505742
434,1.7575568700345194250085886800564
435,1.7580212033515143106610101904749
436,1.7584844803412923527614186969106
437,1.7589467059652951693267810757181
438,1.7594078851527843859970386511830
439,1.7598680228011702341094240496728
440,1.7603271237763381696912560726010
441,1.7607851929129706875994932928838
442,1.7612422350148679092690525298018
443,1.7616982548552666070391114478935
444,1.7621532571771523001856553898552
445,1.7626072466935737695633269416999
446,1.7630602280879510319604217087580
447,1.7635122060143839606248733888852
448,1.7639631850979547879946479084223
449,1.7644131699350323495366908224358
450,1.7648621650935702401266585046432
451,1.7653101751134064056592507018268
452,1.7657572045065570314675808151193
453,1.7662032577575104915112168992578
454,1.7666483393235177688404575353765
455,1.7670924536348829934743492252964
456,1.7675356050952494176952985376150
457,1.7679777980818855482122239867018
458,1.7684190369459678556297633803969
459,1.7688593260128626005080291809911
460,1.7692986695824064445407888540685
461,1.7697370719291837236660527208087
462,1.7701745373028036241381461433662
463,1.7706110699281758942680248307269
464,1.7710466740057832826477534781968
465,1.7714813537119547025332069912510
466,1.7719151131991362850697269880588
467,1.7723479565961596349707845889239
468,1.7727798880085123385279863162369
469,1.7732109115186032360731642425850
470,1.7736410311860300200888753657333
471,1.7740702510478434640181005902855
472,1.7744985751188126186610097700643
473,1.7749260073916863677302318059292
474,1.7753525518374588886615371978213
475,1.7757782124056279850423858050764
476,1.7762029930244588496494284529772
477,1.7766268976012436378760070937603
478,1.7770499300225615760376254582838
479,1.7774720941545385441924480766124
480,1.7778933938431065801431041851994
481,1.7783138329142619094993411357174
482,1.7787334151743251265722373327489
483,1.7791521444101989641704349651657
484,1.7795700243896265322657999659890
485,1.7799870588614515648929107990736
486,1.7804032515558753248973871410200
487,1.7808186061847170825870851805050
488,1.7812331264416728346116164729003
489,1.7816468160025755636443643284481
490,1.7820596785256549772004205963791
491,1.7824717176517989379495176432068
492,1.7828829370048152548387783573871
493,1.7832933401916938942990933593395
494,1.7837029308028707931541934246721
495,1.7841117124124915567476362443501
496,1.7845196885786783813355511109280
497,1.7849268628437959846400427703280
498,1.7853332387347205921350506165276
499,1.7857388197631095828196716216306
500,1.786143609425674035662430987108
501,1.786547611204450037954006040356
502,1.786950828567076330644027773027
503,1.787353264967069883603315429069
504,1.787754923844107374612242268490
505,1.788155808624305554896137594713
506,1.788555922720506372305090720669
507,1.788955269532564847074801959278
508,1.789353852447639493241038202116
509,1.789751674840483676210783498951
510,1.790148740073744126131235540520
511,1.790545051498260011688102402145
512,1.790940612453366655567439058245
513,1.791335426267202696206290200134
514,1.791729496257021569437180408347
515,1.792122825729507890103923463554
516,1.792515417981097158914098040855
517,1.792907276298300093735636640562
518,1.793298403958033605192603701222
519,1.793688804227955443538627506734
520,1.794078480366805629875530935816
521,1.794467435624751734684735977426
522,1.794855673243742559815389735844
523,1.795243196457866953929749319371
