Eigenstate,Potential Energy
1,0.500000000017901592591036621312993653
2,0.64623093776796683588359561758183614
3,0.73633761004821919976879551862525942
4,0.79966527852917498728737893372649688
5,0.8480465765240995379502162745411989
6,0.8870659987865883379716312622547451
7,0.9197208267543098527913816755189308
8,0.9477838468039495004721083832347332
9,0.9723835579416385025478625264706125
10,0.9942802143158572275328535078427917
11,1.0140093860675833751642891033016543
12,1.0319621685014027503010018019393373
13,1.0484326916830897062483213784668871
14,1.0636476532957621380574459916064076
15,1.0777854344540624247172832638316533
16,1.090988904574600084600815495579846
17,1.103374254837454642719503919657134
18,1.115037249192374196505335294831422
19,1.126057747462752482802719067360030
20,1.136503042979564977494202842068068
21,1.146430368663065856054224765553188
22,1.155888808181527985762343283726147
23,1.164920773887767488077705447353183
24,1.173563164219565835969742853550203
25,1.181848280495596204184428751686525
26,1.189804560723011192342081444929447
27,1.197457172560018642403612470357139
28,1.204828496674921464821377012490257
29,1.211938523948069567489240505085254
30,1.218805184313684413216307022537904
31,1.225444620892578232013379684814679
32,1.231871419988890330222301845822475
33,1.238098805214315134735054922472890
34,1.244138802252750344659498718906137
35,1.250002379439098497299787384048702
36,1.255699568292476376940365327293552
37,1.261239567340002146544444635907800
38,1.266630831936911339449347812914031
39,1.271881152290904198714392334789998
40,1.276997721502806068305721563982144
41,1.281987195118872266641629883291549
42,1.286855743435076271565643032354276
43,1.291609097587233700938663781347596
44,1.296252590292720557570806536910795
45,1.300791191971974638244390409625171
46,1.305229542864832724009447710275380
47,1.309571981663279556621286166374888
48,1.313822571104598241758034104534873
49,1.317985120904249175773509959921786
50,1.32206320835368187909919209441985
51,1.32606019686281715694640796631880
52,1.32997925268859179366875959838087
53,1.33382336005850786860578687036035
54,1.33759533487056764977864535765127
55,1.34129783712749952930177140539570
56,1.34493338224310589425361208032390
57,1.34850435134136486163415292008606
58,1.35201300065412061974915322331605
59,1.35546147011044317108855351331522
60,1.35885179119971376406656123769591
61,1.36218589418092807348834122529034
62,1.36546561470240818449649264584324
63,1.36869269988887254573141729080426
64,1.37186881394650057751890146449275
65,1.37499554333109378092649609755259
66,1.37807440151958785447719879694129
67,1.38110683342090803398394317712128
68,1.38409421945840371016059387800888
69,1.38703787935278570793894914283973
70,1.38993907563156134315784801418402
71,1.39279901688836366855971347825336
72,1.39561886081327307865055040832648
73,1.39839971701317643657619099117838
74,1.40114264963939003761516120775103
75,1.40384867983814162278577169734773
76,1.40651878803805709931000390810536
77,1.40915391608749522625887378478429
78,1.41175496925340772552386092033763
79,1.41432281809235545826694880969548
80,1.41685830020337318135744854792963
81,1.41936222187152605682727025550671
82,1.42183535961023963682288777356861
83,1.42427846160979631274263916354038
84,1.42669224909876692553192874875402
85,1.42907741762458695793526013059855
86,1.43143463825897086411476340559786
87,1.43376455873340062124502505717083
88,1.43606780450950120995836416301470
89,1.43834497978873222835323017799740
90,1.44059666846548162754913514733757
91,1.44282343502732610472085191012943
92,1.44502582540593439200550041030656
93,1.44720436778182742462052510021287
94,1.44935957334596644279247527363182
95,1.45149193702091892806748330693315
96,1.45360193814415045245793871844433
97,1.45569004111580617677023444426626
98,1.45775669601317286016377390980890
99,1.45980233917385877080228897585120
100,1.46182739374958254704248008400854
101,1.46383227023233275445047955614454
102,1.46581736695453430921558989038340
103,1.46778307056475002491785487024573
104,1.46972975648033827489561862634146
105,1.47165778931839468870232131156825
106,1.47356752330621503689808112652523
107,1.47545930267243837646618662840239
108,1.47733346201995028959024968784956
109,1.47919032668155745499359900468696
110,1.48103021305938237091743544209710
111,1.48285342894886118761575664750099
112,1.48466027384817817361157962411200
113,1.48645103925391480416490533957883
114,1.48822600894364270264655344121852
115,1.48998545924614921700939243125080
116,1.49172965929993608190029799997640
117,1.49345887130059990394938932834532
118,1.49517335073766217666752963911621
119,1.49687334662138281766678206880230
120,1.49855910170006537868352221983551
121,1.50023085266832381163969763799119
122,1.50188883036676176084491656397660
123,1.50353325997348315851006118970654
124,1.50516436118783522093446131431698
125,1.50678234840675537646555844377112
126,1.50838743089407845903242094347533
127,1.50997981294313992316808071401777
128,1.51155969403298824924577626310755
129,1.51312726897850763441607124498331
130,1.51468272807473368286455741405819
131,1.51622625723562940489177561467519
132,1.51775803812757385711617680719258
133,1.51927824829780397451702284877616
134,1.52078706129803886907522165420516
135,1.52228464680349776142763960860426
136,1.52377117072751902442007137542759
137,1.52524679533197450950042103044671
138,1.52671167933365971490311008114588
139,1.52816597800683824867005014547983
140,1.52960984328210359358528947521547
141,1.53104342384171662361047896717014
142,1.53246686521156924814120171002516
143,1.53388030984991591023497267679037
144,1.53528389723300748532462217914310
145,1.53667776393775793917183852099333
146,1.53806204372156623506457631135876
147,1.53943686759940777729609726545245
148,1.54080236391831071993009621667053
149,1.54215865842931894178201420630491
150,1.54350587435704532846951643532068
151,1.54484413246691127576127084813295
152,1.54617355113016271336858445739245
153,1.54749424638675159884773729415879
154,1.54880633200616678082886715171296
155,1.55010991954629246753748060132637
156,1.55140511841037216694462305830328
157,1.55269203590214914512167705047324
158,1.55397077727925522087327077602577
159,1.5552414458049115694538258096045
160,1.5565041427980078728775162646848
161,1.5577589676816183129126588047090
162,1.5590060180300138678319911954318
163,1.5602453896142257661882196985608
164,1.5614771764462147341798438061170
165,1.5627014708216946367949602209638
166,1.5639183633616610282918087836252
167,1.5651279430526718443055723738778
168,1.5663302972859229244649049747450
169,1.5675255118951634275788531898487
170,1.5687136711934908824798172392756
171,1.5698948580090660689533776528272
172,1.5710691537197855953828588588860
173,1.5722366382869475754093403559861
174,1.5733973902879462470910604407776
175,1.5745514869480295194651400372610
176,1.5756990041711491528343597339041
177,1.5768400165699368332863187735111
178,1.5779745974948352958110475021592
179,1.5791028190624109409327268818305
180,1.5802247521828788912242017902970
181,1.5813404665868631362602516328142
182,1.5824500308514194613647015708544
183,1.5835535124253442093950188186695
184,1.5846509776537931170700620319971
185,1.5857424918022320339338451436583
186,1.5868281190797404925441717888979
187,1.5879079226616919303528330456072
188,1.5889819647118259995611208263395
189,1.5900503064037366960073541800814
190,1.5911130079417919581301864299355
191,1.5921701285815039585250486511649
192,1.5932217266493664702616993903037
193,1.5942678595621776117751092897154
194,1.5953085838458613110760259975453
195,1.5963439551538054216030591100197
196,1.5973740282847301815787751151447
197,1.5983988572001013921528608218730
198,1.5994184950411024762732819940154
199,1.6004329941451782521006882811458
200,1.6014424060621643611268791432961
201,1.6024467815700133273758642958657
202,1.6034461706901306237986372042784
203,1.6044406227023314005434507137689
204,1.6054301861594294899628725726563
205,1.6064149089014686536694342025823
206,1.6073948380696090903364939045809
207,1.6083700201196750748696172726117
208,1.6093405008353779503528288930852
209,1.6103063253412202155970744708794
210,1.6112675381150922038896873797629
211,1.6122241830005687119010042040436
212,1.6131763032189158058699642314785
213,1.6141239413808121829563806680872
214,1.6150671394978000634430945195377
215,1.6160059389934648200125237198639
216,1.6169403807143572985477306167597
217,1.6178705049406627894931886584462
218,1.6187963513966256222178745358911
219,1.6197179592607326553092365185799
220,1.6206353671756681709183298820078
221,1.6215486132580380754383913362951
222,1.6224577351078806038746198876156
223,1.6233627698179570887285137025013
224,1.6242637539828378526870709696456
225,1.6251607237077857816513624289366
226,1.6260537146174411160371668874452
227,1.6269427618643161031859700338364
228,1.6278279001371013210773864083971
229,1.6287091636687908254780114421019
230,1.6295865862446308067547411175076
231,1.6304602012098935456066863841010
232,1.6313300414774870766199054096062
233,1.6321961395353955451328085542842
234,1.6330585274539664034613328897938
235,1.6339172368930376175669484901555
236,1.6347722991089145829186778741816
237,1.6356237449612003696587282871962
238,1.6364716049194810280650263640378
239,1.6373159090698713898725354014854
240,1.6381566871214235188516512484672
241,1.6389939684124020919731017792185
242,1.6398277819164295670900136466331
243,1.6406581562485051678901200729451
244,1.6414851196708993743339946323466
245,1.6423087000989282916692830032256
246,1.6431289251066104165675560167036
247,1.6439458219322071821481094612546
248,1.6447594174836548624213624670514
249,1.6455697383438828046458817771082
250,1.6463768107760283736979529741532
251,1.6471806607285465078588747816516
252,1.6479813138402166839130776367312
253,1.6487787954450523631533582523316
254,1.6495731305771125745433516400013
255,1.6503643439752195144598276784021
256,1.6511524600875822477744713858647
257,1.6519375030763329010126769699121
258,1.6527194968219717916410184204266
259,1.6534984649277282963268444930556
260,1.6542744307238378438673427003840
261,1.6550474172717353458381381485440
262,1.6558174473681697896863455824224
263,1.6565845435492388441476539958706
264,1.6573487280943489271382904949739
265,1.6581100230300992606468796659121
266,1.6588684501340920796561647408762
267,1.6596240309386722076241073546994
268,1.6603767867345960315207663488684
269,1.6611267385746341456175028769456
270,1.6618739072771033874500380346748
271,1.6626183134293375491889466313577
272,1.6633599773910907432588078786488
273,1.6640989192978808645973653937216
274,1.6648351590642703578490186046503
275,1.6655687163870881643488468529825
276,1.6662996107485911265259452446277
277,1.6670278614195723330166728311713
278,1.6677534874624081584115945351199
279,1.6684765077340555000811560793058
280,1.6691969408889913049259581982808
281,1.6699148053821022748549464287202
282,1.6706301194715222472399249802997
283,1.6713429012214204627728278384516
284,1.6720531685047378772411609257629
285,1.6727609390058783244620231728519
286,1.6734662302233505551001807080090
287,1.6741690594723662106413795823267
288,1.6748694438873901342767076509634
289,1.6755674004246476667424047879257
290,1.6762629458645896596221591255383
291,1.6769560968143130470322672247312
292,1.6776468697099398605759827356194
293,1.6783352808189585933217109330290
294,1.6790213462425229496991546817459
295,1.6797050819177100684385906061245
296,1.6803865036197458040926692995161
297,1.6810656269641869988456021118988
298,1.6817424674090700613405531915932
299,1.6824170402570226553605229098813
300,1.6830893606573402489453453889295
301,1.6837594436080279353598210300089
302,1.6844273039578096188227916585107
303,1.6850929564081017381028537209402
304,1.6857564155149551054871567198149
305,1.6864176956909662896267781721124
306,1.6870768112071578054550658878609
307,1.6877337761948242931295562882724
308,1.6883886046473521644224949055410
309,1.6890413104220088058224935642513
310,1.6896919072417016734903965368976
311,1.6903404086967108749690438774528
312,1.6909868282463927507761382605442
313,1.6916311792208558486258878128505
314,1.6922734748226110945498042397217
315,1.6929137281281954805564506906507
316,1.6935519520897706444689482827458
317,1.6941881595366938805420640269427
318,1.6948223631770669321005220757751
319,1.6954545755992597077574886432346
320,1.6960848092734089224681750403524
321,1.6967130765528955823496405646868
322,1.6973393896757974276945223904046
323,1.6979637607663198482148072130281
324,1.6985862018362042476516501663481
325,1.6992067247861156197294083107262
326,1.6998253414070075726767277487135
327,1.7004420633814676230671709016960
328,1.7010569022850399481706296484984
329,1.7016698695875305716706083190704
330,1.7022809766542914144102757102228
331,1.7028902347474846487398469746150
332,1.7034976550273284176859396346182
333,1.7041032485533242974772435467066
334,1.7047070262854646874282416232538
335,1.7053089990854244420923445647710
336,1.7059091777177328037145657820139
337,1.7065075728509285072082383943820
338,1.7071041950586991164860457051537
339,1.7076990548210006566311816442995
340,1.7082921625251636332267819199921
341,1.7088835284669811524000159293623
342,1.7094731628517816387084881219974
343,1.7100610757954857886361879112683
344,1.7106472773256477533847406572636
345,1.7112317773824823702719694516415
346,1.7118145858198759175111810626635
347,1.7123957124063839577078669382500
348,1.7129751668262130817761245648356
349,1.7135529586801900981774085084714
350,1.7141290974867162098006870444811
351,1.7147035926827082660659382846399
352,1.7152764536245267725946099388694
353,1.7158476895888899428038978058244
354,1.7164173097737752058800452018860
355,1.7169853232993085363931126730827
356,1.7175517392086398153212893526690
357,1.7181165664688074615084962376934
358,1.7186798139715915775420301590541
359,1.7192414905343513551748569386557
360,1.7198016049008556781977402093628
361,1.7203601657420986676165652768560
362,1.7209171816571066507214545653399
363,1.7214726611737311496476155803607
364,1.7220266127494329134090227373470
365,1.7225790447720552297592977185541
366,1.7231299655605853945373989850500
367,1.7236793833659072304961486531831
368,1.7242273063715414443311685224926
369,1.7247737426943784544439416333383
370,1.7253187003853994026031441403143
371,1.7258621874303882028025887347878
372,1.7264042117506335837841097880063
373,1.7269447812036210919303734289806
374,1.7274839035837193629968396354624
375,1.7280215866228513542421119509628
376,1.7285578379911619931622018322388
377,1.7290926652976740320290093785149
378,1.7296260760909352756342590658567
379,1.7301580778596590220304960502284
380,1.7306886780333544730235135787799
381,1.7312178839829499898420891714253
382,1.7317457030214063121443379084833
383,1.7322721424043244150120113809919
384,1.7327972093305429676229753276507
385,1.7333209109427290148458912334111
386,1.7338432543279625403986356703039
387,1.7343642465183106608948109973661
388,1.7348838944913953875648536868642
389,1.7354022051709556303238453490265
390,1.7359191854274006332787089769142
391,1.7364348420783551586007210730373
392,1.7369491818892000271255198726535
393,1.7374622115736054891515153725365
394,1.7379739377940560065176662008520
395,1.7384843671623693028172954967702
396,1.7389935062402093325984536262065
397,1.7395013615395927994423448337985
398,1.7400079395233892310371130546843
399,1.7405132466058131770204841717033
400,1.7410172891529128295319636187920
401,1.7415200734830511153761292200671
402,1.7420216058673800049958317461141
403,1.7425218925303108589773321256149
404,1.7430209396499787051588161536824
405,1.7435187533586979117693819729734
406,1.7440153397434153656148052606799
407,1.7445107048461582720118712497927
408,1.7450048546644740796465901685011
409,1.7454977951518653914150198131883
410,1.7459895322182223757063577558457
411,1.7464800717302469381273826087341
412,1.7469694195118722362391875089729
413,1.7474575813446786163466390008304
414,1.7479445629683023961672556342907
415,1.7484303700808417773233529054112
416,1.7489150083392563172714208578479
417,1.7493984833597628091364317369225
418,1.7498808007182247326687721888774
419,1.7503619659505395548159828113785
420,1.7508419845530188618125746591110
421,1.7513208619827652749523544229122
422,1.7517986036580454316264899068369
423,1.7522752149586568677481273711662
424,1.7527507012262924152687548500448
425,1.7532250677648984941265265686442
426,1.7536983198410309054465369565935
427,1.7541704626842056106028620613101
428,1.7546415014872445098089254021669
429,1.7551114414066201326033764950962
430,1.7555802875627921023154560014187
431,1.7560480450405428781426313570512
432,1.7565147188893099243323875173527
433,1.7569803141235096443429178254726
434,1.7574448357228641778967354773588
435,1.7579082886327188845782512209096
436,1.7583706777643584149417531986588
437,1.7588320079953195304751923882430
438,1.7592922841696996544594009972663
439,1.7597515110984618350020664213406
440,1.7602096935597371914339956820302
441,1.7606668362991220038951121832689
442,1.7611229440299730097294429160111
443,1.7615780214337005543577872588490
444,1.7620320731600542159717351379058
445,1.7624851038274102346797934206363
446,1.7629371180230517704263187325823
447,1.7633881203034491588234757870535
448,1.7638381151945333830676890314754
449,1.7642871071919706024159842479049
450,1.7647351007614298896329457106779
451,1.7651821003388516804717088055932
452,1.7656281103307097765062583887332
453,1.7660731351142726443547839037013
454,1.7665171790378604002113181192596
455,1.7669602464211011035251073667548
456,1.7674023415551816567939478566793
457,1.7678434687030980071446225293831
458,1.7682836320999010455635806721273
459,1.7687228359529407176679358040793
460,1.7691610844421079883249826841188
461,1.7695983817200725098099264382322
462,1.7700347319125192065165666279436
463,1.7704701391183823799557764847569
464,1.7709046074100754949112793595048
465,1.7713381408337206154511212495492
466,1.7717707434093746214546703163079
467,1.7722024191312514861335427461499
468,1.7726331719679456301488912658197
469,1.7730630058626488289837506933520
470,1.7734919247333681980718909728820
471,1.7739199324731395227504647791193
472,1.7743470329502402306083775658333
473,1.7747732300083973570926317335651
474,1.7751985274669980083248849916027
475,1.7756229291212912438422146207828
476,1.7760464387425938930249527342413
477,1.7764690600784906381656878063655
478,1.7768907968530330401246042308819
479,1.7773116527669363959107837110531
480,1.7777316314977748227263288858739
481,1.7781507367001731193020139130583
482,1.7785689720059989732655479850237
483,1.7789863410245508944921412616582
484,1.7794028473427446941438769455852
485,1.7798184945252999862253336762312
486,1.7802332861149212963984853547425
487,1.7806472256324806267883996582980
488,1.7810603165771960732143141884236
489,1.7814725624268097228927956255552
490,1.7818839666377626956039190171894
491,1.7822945326453694624656006449385
492,1.7827042638639900303640106185144
493,1.7831131636871999669066701647590
494,1.7835212354879593597941408162397
495,1.7839284826187789029595017673626
496,1.7843349084118863537478218066363
497,1.7847405161793890465045974858817
498,1.7851453092134364076728923455136
499,1.7855492907863799695632443874375
500,1.785952464150933013109339867481
501,1.786354832540325585458170555899
502,1.786756399168462347382083771239
503,1.787157167230074718442266501129
504,1.787557139900875163540109200226
505,1.787956320337706468117162999529
506,1.788354711678691731882369558167
507,1.788752317043382928881453184511
508,1.789149139532907673650123460043
509,1.789545182230112424121426865931
510,1.789940448199708174299365557215
511,1.790334940488411867548445692053
512,1.790728662125087430465533892971
513,1.791121616120885042841695859599
514,1.791513805469379319945790863794
515,1.791905233146706781198043973714
516,1.792295902111700815391475426427
517,1.792685815306025217021179836408
518,1.793074975654308078929310300458
519,1.793463386064272823030832897327
520,1.793851049426869225945661574095
521,1.794237968616401234587500613815
522,1.794624146490655847732707006758
523,1.795009585891029500548817424262
