Eigenstate,Potential Energy
1,0.500000000020292568217262133148016625
2,0.64623093778357386379814295756660563
3,0.73633761009406351677073179447682671
4,0.79966527862466327041540158130118666
5,0.8480465766895043554681497555533240
6,0.8870659990425367797623512478316779
7,0.9197208271215950350402561504552980
8,0.9477838473034518818626818744210078
9,0.9723835585942892287314766034452228
10,0.9942802151426194646515014588821676
11,1.0140093870894421117575995598243092
12,1.0319621697393589145344106380132104
13,1.0484326931581566323802686590572777
14,1.0636476550289633848598375337748345
15,1.0777854364664304094668280578803473
16,1.090988906887175229335634748010205
17,1.103374257471284853682451612279371
18,1.115037252168514566996144562908785
19,1.126057750802265149892857936216211
20,1.136503046703519087248532761163840
21,1.146430372792537606907795561940262
22,1.155888812737600729268805439128518
23,1.164920778891531872500932688252735
24,1.173563169692119982372098283112484
25,1.181848286458045907518128119084508
26,1.189804567196470142032751770974777
27,1.197457179565608658316314856658983
28,1.204828504233772745504973224000003
29,1.211938532081320948326989752128053
30,1.218805193042483632650432716511393
31,1.225444630238082204414318986663062
32,1.231871429972265424277533600703162
33,1.238098815856737456464417468933931
34,1.244138813575406024342601526614194
35,1.250002391463183979739994154026544
36,1.255699581039198714598675709308388
37,1.261239580830579295162592929227666
38,1.266630846192572455849889209003542
39,1.271881167332889940520405592362546
40,1.276997737352368895367029965710232
41,1.281987211797276743990384281716682
42,1.286855760963599373753470060767635
43,1.291609115987165117631696090040258
44,1.296252609585363000298819465223744
45,1.300791212178644148216796240353146
46,1.305229564006858980924680812442513
47,1.309572003762006188407648955491931
48,1.313822594181383135193798565890485
49,1.317985144980464787942266410033526
50,1.32206323345071554964340605114358
51,1.32606022300207142108807386344617
52,1.32997927989148469597110971787366
53,1.33382338834647327745435955419397
54,1.33759536426505557256376221550108
55,1.34129786764997642828770431790309
56,1.34493341391505500312251862528831
57,1.34850438418428650269529588281510
58,1.35201303468953252180604127969810
59,1.35546150535988078795849353948639
60,1.35885182768473059374873790266672
61,1.36218593192309597797797048604050
62,1.36546565372331771024385905898888
63,1.36869274021013324474571595795447
64,1.37186885558974132911779185557722
65,1.37499558631796311413316008420752
66,1.37807444587175427106746982958875
67,1.38110687916006033218677388975326
68,1.38409426660625130901575951048621
69,1.38703792793105897231644312153294
70,1.38993912566201190944392976939135
71,1.39279906839276477101502990915118
72,1.39561891381341987644616118944566
73,1.39839977153088634151370734943374
74,1.40114270569650304253754123481961
75,1.40384873745652063068563192010769
76,1.40651884723958825314260093944969
77,1.40915397689408823946714292850841
78,1.41175503168699621328316848271344
79,1.41432288217489726945741528116723
80,1.41685836595685073127191348548585
81,1.41936228931794666062315660762357
82,1.42183542877163584372640199898770
83,1.42427853250822624101390271957088
84,1.42669232175631459819979278340468
85,1.42907749206336263931070241777874
86,1.43143471450111139709189524624669
87,1.43376463680106976539886876680432
88,1.43606788442488998044867715055215
89,1.43834506157405923564378136493993
90,1.44059675214299341795192423471035
91,1.44282352061929750177488697059555
92,1.44502591293466883869983625253713
93,1.44720445726965732647137254736258
94,1.44935966481525351178426879597257
95,1.45149203049405452746789630126073
96,1.45360203364355594251691316173009
97,1.45569013866393326131317857896624
98,1.45775679563250393408915833734759
99,1.45980244088690726849396391095176
100,1.46182749757889329170709145192213
101,1.46383237620048230839045444354501
102,1.46581747508413132504823292749458
103,1.46778318087843559775115864266043
104,1.46972986900078629547147719070854
105,1.47165790406831219751790099825554
106,1.47356764030834257931616308472175
107,1.47545942194955035882538718941417
108,1.47733358359485533632605876531457
109,1.47919045057709876678127790300376
110,1.48103033929843808384786438961617
111,1.48285355755434473341539286229159
112,1.48466040484303864091775319747249
113,1.48645117266113730086774881197019
114,1.48822614478624871930891854734689
115,1.48998559754719699137619026869773
116,1.49172980008252096450874964797898
117,1.49345901458785472485173621715826
118,1.49517349655275761327784557929781
119,1.49687349498752776374356135943237
120,1.49855925264050731445981288785073
121,1.50023100620634917511259040470383
122,1.50188898652569632023629089935045
123,1.50353341877669238591053913917357
124,1.50516452265872466714259350633076
125,1.50678251256877104703434007712630
126,1.50838759777070719153528895708123
127,1.50997998255790976569662927215488
128,1.51155986640946884015148555776376
129,1.51312744414031058330840900822330
130,1.51468290604551295287790110863774
131,1.51622643803908169623365312915853
132,1.51775822178743899190941179888817
133,1.51927843483786528294841984072992
134,1.52078725074212357686352408677430
135,1.52228483917547737862354928432673
136,1.52377136605130973555118908251756
137,1.52524699363153756507406320229175
138,1.52671188063300182427999182752285
139,1.52816618233001197432193828998476
140,1.52961005065320774674978748219765
141,1.53104363428489666135618243147674
142,1.53246707875101767185652933816759
143,1.53388052650987266555408245497919
144,1.53528411703776036350387034834082
145,1.53667798691164297993034599946333
146,1.53806226988896813090250390149486
147,1.53943709698476027930438867427311
148,1.54080259654609704510542166225174
149,1.54215889432407218186082320328903
150,1.54350611354334886029514569903945
151,1.54484437496939917319813141414575
152,1.54617379697352016077757551489975
153,1.54749449559571530613707386881566
154,1.54880658460552540009461053823278
155,1.55011017556088701130815555286118
156,1.55140537786509642804440425424563
157,1.55269229882195011816666165973357
158,1.55397104368913352541551117967705
159,1.5552417157299218747878346162553
160,1.5565044162632593245240740994535
161,1.5577592447122749607948367233320
162,1.5590062986512950961583982222521
163,1.5602456738514067250585546069708
164,1.5614774643246267729279773352907
165,1.5627017623667257390847950124313
166,1.5639186585987562489813481013496
167,1.5651282420073337480946389439287
168,1.5663305999837120263421014264450
169,1.5675258183616986350834397587099
170,1.5687139814544499397942983489316
171,1.5698951720901860028426490267864
172,1.5710694716468631629959128904099
173,1.5722369600858397139596049724479
174,1.5733977159845705254315559587221
175,1.5745518165683645915747539730140
176,1.5756993377412352132316151740701
177,1.5768403541158760743871519872902
178,1.5779749390427923672472088007319
179,1.5791031646386134108475023428083
180,1.5802251018136177095623172534069
181,1.5813408202984931000688641627657
182,1.5824503886703596821225505916649
183,1.5835538743780785823868877678506
184,1.5846513437668707928238427885468
185,1.5857428621022678917375988201128
186,1.5868284935934156160606680539201
187,1.5879083014157540853492275865131
188,1.5889823477330901137715030492888
189,1.5900506937190853411460303875751
190,1.5911133995781758340736835020848
191,1.5921705245659423796809643785833
192,1.5932221270089478541426022980057
193,1.5942682643240599697958695384100
194,1.5953089930372727415930348774858
195,1.5963443688020446052139754653729
196,1.5973744464171668787015166118564
197,1.5983992798441769429027042014312
198,1.5994189222243303026570837499240
199,1.6004334258951443625473487037219
200,1.6014428424065278573732951850538
201,1.6024472225365069137277968987163
202,1.6034466163065611187860119766705
203,1.6044410729965802509897624655774
204,1.6054306411594532874885079982483
205,1.6064153686352996536488169237992
206,1.6073953025653557333292367357250
207,1.6083704894055225105458091427772
208,1.6093409749395885639328864874316
209,1.6103068042921341568266825631772
210,1.6112680219411279185704727441400
211,1.6122246717302234759977666925904
212,1.6131767968807662622154393963490
213,1.6141244400035148805746292602387
214,1.6150676431100919995128143110826
215,1.6160064476241639844916791648936
216,1.6169408943923632214810979026608
217,1.6178710236949570910245413168781
218,1.6187968752562725653287072909196
219,1.6197184882548797013060682832358
220,1.6206359013335465376908152597189
221,1.6215491526089632985106185096353
222,1.6224582796812531002721277472655
223,1.6233633196432627236837304152455
224,1.6242643090896485092060719828640
225,1.6251612841257599329649659088914
226,1.6260542803763244009596282130936
227,1.6269433329939419044046052364670
228,1.6278284766673913463967483338083
229,1.6287097456297556920423072051016
230,1.6295871736663706282724367479494
231,1.6304607941225985226013985763826
232,1.6313306399114380897318596691238
233,1.6321967435209647514953032090087
234,1.6330591370216178361768744380472
235,1.6339178520733277883078992977800
236,1.6347729199324930876774414061748
237,1.6356243714588104976726296918707
238,1.6364722371219603739413855265221
239,1.6373165470081524689394469272962
240,1.6381573308265343857603071057298
241,1.6389946179154669625776577424528
242,1.6398284372486694436311499310029
243,1.6406588174412384675087383524101
244,1.6414857867555425609416274944450
245,1.6423093731069965112019906869830
246,1.6431296040697181356503910418502
247,1.6439465068820688301972836789137
248,1.6447601084520854772116278596084
249,1.6455704353627986813707300315485
250,1.6463775138774477175504776400651
251,1.6471813699445900901614280288755
252,1.6479820292031085018239687128490
253,1.6487795169871203029791449609152
254,1.6495738583307890786854971524811
255,1.6503650779730422520245953709211
256,1.6511532003621947888753958210527
257,1.6519382496604853947949432911844
258,1.6527202497485216480574528110011
259,1.6534992242296408716954253629149
260,1.6542751964341871302403473647256
261,1.6550481894237046642133133673957
262,1.6558182259950524870907567790847
263,1.6565853286844389946250258445064
264,1.6573495197713820366709882350843
265,1.6581108212825929760438927028926
266,1.6588692549957869014387064968793
267,1.6596248424434222069406818607693
268,1.6603776049163695711238938537481
269,1.6611275634675146049344068971815
270,1.6618747389152898917800040192806
271,1.6626191518471457030602525492252
272,1.6633608226229533679784299039203
273,1.6640997713783487400268489769833
274,1.6648360180280129684403233864826
275,1.6655695822688944494741045964566
276,1.6663004835833702351354616868200
277,1.6670287412423543826596762617646
278,1.6677543743083449986546384983888
279,1.6684774016384214803592798284424
280,1.6691978418871840468620173408716
281,1.6699157135096434490828329231448
282,1.6706310347640583547676841459304
283,1.6713438237147236209220257922307
284,1.6720540982347066101989969875929
285,1.6727618760085383584832339905018
286,1.6734671745348556183958876491054
287,1.6741700111289988379924049574038
288,1.6748704029255624764092190335029
289,1.6755683668809023045040192505594
290,1.6762639197756004229970921988139
291,1.6769570782168858390341917409257
292,1.6776478586410134860577632727707
293,1.6783362773156055927415050134127
294,1.6790223503419504378827047643929
295,1.6797060936572605783777504143217
296,1.6803875230368981358206900739095
297,1.6810666540965570734298998282595
298,1.6817435022944117800342647875482
299,1.6824180829332287639542289227073
300,1.6830904111624432073608280728301
301,1.6837605019802007925281681452433
302,1.6844283702353668928893339319961
303,1.6850940306295003020018353420856
304,1.6857574977187950779295870343191
305,1.6864187859159919315450238078681
306,1.6870779094922584219482923203047
307,1.6877348825790351409544023614085
308,1.6883897191698553650738552503330
309,1.6890424331221342642495668982485
310,1.6896930381589280024936434742950
311,1.6903415478706663253239141905860
312,1.6909879757168561471301909110281
313,1.6916323350277575312158426282670
314,1.6922746390060338667858304888831
315,1.6929149007283755625213310613323
316,1.6935531331470986323800508528953
317,1.6941893490917157122247001765611
318,1.6948235612704848585213605614095
319,1.6954557822719332706675584899434
320,1.6960860245663559382049243593539
321,1.6967143005072931318483805872798
322,1.6973406223329828527598799505104
323,1.6979650021677917541030766437693
324,1.6985874520236235120157367596115
325,1.6992079838013064079781206618713
326,1.6998266092919583598010249027097
327,1.7004433401783322219860865589801
328,1.7010581880361385446503310879493
329,1.7016711643353507658703704727779
330,1.7022822804414892691096369006629
331,1.7028915476168857443017362822213
332,1.7034989770219289138112127952320
333,1.7041045797162920018061637197525
334,1.7047083666601401310452860437759
335,1.7053103487153219619910728889895
336,1.7059105366465416322798576256093
337,1.7065089411225138687737813425924
338,1.7071055727171033310252260240117
339,1.7077004419104442506403115971684
340,1.7082935590900464578600451269897
341,1.7088849345518835089160330785404
342,1.7094745785014654112888724018004
343,1.7100625010548955846373310360522
344,1.7106487122399120510840666782712
345,1.7112332219969146741709525511529
346,1.7118160401799759212579499079553
347,1.7123971765578387147023173631887
348,1.7129766408148981835215463116767
349,1.7135544425521708604431956109337
350,1.7141305912882488666607647208525
351,1.7147050964602411718788818492763
352,1.7152779674247016119914863948075
353,1.7158492134585429487505920153802
354,1.7164188437599383858815654916536
355,1.7169868674492109069080013797474
356,1.7175532935697086444546865589015
357,1.7181181310886695200532121225563
358,1.7186813888980743984376696231140
359,1.7192430758154845014553978245946
360,1.7198032005848720194990656258847
361,1.7203617718774356653157291865875
362,1.7209187982924076517802526267408
363,1.7214742883578466892338765483292
364,1.7220282505314220263694141062092
365,1.7225806932011867710183807466820
366,1.7231316246863393684982164314950
367,1.7236810532379761295185463811332
368,1.7242289870398315963643368360846
369,1.7247754342090113798909679311191
370,1.7253204027967131804956177455991
371,1.7258639007889388463642318963412
372,1.7264059361071964254631733976124
373,1.7269465166091921779812666502343
374,1.7274856500895168576921434264465
375,1.7280233442803169537969555870510
376,1.7285596068519623494539125365102
377,1.7290944454137021861953172731778
378,1.7296278675143121016347734341084
379,1.7301598806427346802562201785153
380,1.7306904922287098740407047724409
381,1.7312197096433982683569065477904
382,1.7317475401999943112761937107492
383,1.7322739911543341809638740778932
384,1.7327990697054932548381237491557
385,1.7333227829963768017411471640507
386,1.7338451381143045557650497737620
387,1.7343661420915849210579364953423
388,1.7348858019060827443970987867750
389,1.7354041244817813302029208570421
390,1.7359211166893358870866087076150
391,1.7364367853466187228586273951987
392,1.7369511372192597963613422789936
393,1.7374641790211800995973042208940
394,1.7379759174151164512352082704169
395,1.7384863590131405583511718341038
396,1.7389955103771719972569771763964
397,1.7395033780194847433073921654551
398,1.7400099684032072578052477153886
399,1.7405152879428146977785609755376
400,1.7410193430046175485713442357396
401,1.7415221399072427281508981106523
402,1.7420236849221079083313269365480
403,1.7425239842738918736363099059951
404,1.7430230441409988108735528022119
405,1.7435208706560139948493189405437
406,1.7440174699061569792403412277814
407,1.7445128479337294093258544773631
408,1.7450070107365549597562315218938
409,1.7454999642684142584183037968234
410,1.7459917144394773108578161856289
411,1.7464822671167276852595126428433
412,1.7469716281243820405566495536318
413,1.7474598032443060767119108472627
414,1.7479467982164233309974039434961
415,1.7484326187391211042187735967280
416,1.7489172704696499464985429276957
417,1.7494007590245195510879361408234
418,1.7498830899798882194256386568571
419,1.7503642688719501759373596097345
420,1.7508443011973157144804801490976
421,1.7513231924133881285995913183492
422,1.7518009479387367071774568441044
423,1.7522775731534636316033983183780
424,1.7527530733995683881659603349694
425,1.7532274539813060750109323386076
426,1.7537007201655432104866616826487
427,1.7541728771821085274870262979684
428,1.7546439302241387674610062980149
429,1.7551138844484233864566998363975
430,1.7555827449757410352854624904969
431,1.7560505168911953174404502441544
432,1.7565172052445469742626826957849
433,1.7569828150505378352310699755690
434,1.7574473512892176312918950582524
435,1.7579108189062614948800811434860
436,1.7583732228132860476005003556278
437,1.7588345678881622369161140120586
438,1.7592948589753239038841194416015
439,1.7597541008860727632210479135623
440,1.7602122983988808668860031800637
441,1.7606694562596877110109474462073
442,1.7611255791821955497990124292481
443,1.7615806718481625640614051255567
444,1.7620347389076885037378114135378
445,1.7624877849795021350330422289346
446,1.7629398146512415164923367576984
447,1.7633908324797342731571074947463
448,1.7638408429912710869745715527205
449,1.7642898506818802439383148695691
450,1.7647378600175953903722355875178
451,1.7651848754347240014233809082701
452,1.7656309013401094030824087846748
453,1.7660759421113920907736155791282
454,1.7665200020972667334335666390350
455,1.7669630856177384869195073403308
456,1.7674051969643739137158511731625
457,1.7678463404005512046140498790571
458,1.7682865201617060982306197167580
459,1.7687257404555760122553374990251
460,1.7691640054624420287404241621664
461,1.7696013193353665831217780265913
462,1.7700376862004300699895505923104
463,1.7704731101569649693447735195379
464,1.7709075952777856542136443783399
465,1.7713411456094178483201425918774
466,1.7717737651723248644790106620928
467,1.7722054579611299041896237853351
468,1.7726362279448394340352790912164
469,1.7730660790670601155492802181336
470,1.7734950152462168130509749025863
471,1.7739230403757659465219745724004
472,1.7743501583244084870963322901124
473,1.7747763729362979460294604096065
474,1.7752016880312508611007034782299
475,1.7756261074049487031652936852962
476,1.7760496348291437166220637480059
477,1.7764722740518590267522929186020
478,1.7768940287975876898785232683814
479,1.7773149027674895756846870362516
480,1.7777348996395864762373943864147
481,1.7781540230689539925396140585580
482,1.7785722766879137673605435063421
483,1.7789896641062214442939016900618
484,1.7794061889112531727540124453449
485,1.7798218546681921357398853368125
486,1.7802366649202096851127929149456
487,1.7806506231886479331221853949691
488,1.7810637329731983966169466350618
489,1.7814759977520799219920314663392
490,1.7818874209822137538636364729959
491,1.7822980060993978816221185166858
492,1.7827077565184792519122508595906
493,1.7831166756335238219115732774695
494,1.7835247668179855473052239399704
495,1.7839320334248724973098535246328
496,1.7843384787869133410217276413820
497,1.7847441062167198904615426505302
498,1.7851489190069496454184534156159
499,1.7855529204304658372612498007390
500,1.785956113740497102032442027710
501,1.786358502170792528677601686523
502,1.786760088935779537400999085483
503,1.787160877230716056079964327269
504,1.787560870231844838378564713819
505,1.787960071096542770824283713102
506,1.788358482963470898730418878777
507,1.788756108952723018782220329908
508,1.789152952165972478032875947331
509,1.789549015686615409982548483162
510,1.789944302579916460757092822210
511,1.790338815893150236239106246236
512,1.790732558655742370122643154199
513,1.791125533879408828402203364268
514,1.791517744558294126532400071084
515,1.791909193669108833330290786062
516,1.792299884171264571782177199013
517,1.792689819007007591319609115005
518,1.793079001101552696775772783641
519,1.793467433363214315792323289877
520,1.793855118683537561506102804493
521,1.794242059937426085570852318752
522,1.794628259983270997541262675232
523,1.795013721663077287603337405827
