Eigenstate,Potential Energy
1,0.500000000027609156799748656008703461
2,0.64623093783133272700003698652629067
3,0.73633761023435125938567187919160805
4,0.79966527891686643600346209041517647
5,0.8480465771956596284675986037806907
6,0.8870659998257663025759182625636672
7,0.9197208282455297480116258114098447
8,0.9477838488319908959409228500310505
9,0.9723835605914878083470241533582245
10,0.9942802176726320587384405234194644
11,1.0140093902164912988625129683341735
12,1.0319621735277175532867090378911230
13,1.0484326976721372009486410550157701
14,1.0636476603329114576206465375982919
15,1.0777854426247206295150361071454159
16,1.090988913964208848704493969930679
17,1.103374265531488293284120373472810
18,1.115037261276338660361786435607062
19,1.126057761022184857903735748815092
20,1.136503058100033545073943568025550
21,1.146430385430170410280130503823161
22,1.155888826680900396505499417799189
23,1.164920794205072437824357607648677
24,1.173563186440501688875332632087590
25,1.181848304705895976855095345329456
26,1.189804587008443603978343133469372
27,1.197457201006389227629875162236520
28,1.204828527368073736607822089273444
29,1.211938556973886220544709441277960
30,1.218805219758088560422682061275569
31,1.225444658841534668108106828473843
32,1.231871460528406818170746490072521
33,1.238098848430443711176418619868413
34,1.244138848231588641535561640322558
35,1.250002428266791077339621212593801
36,1.255699620055216081116119011344352
37,1.261239622124031451962487204113673
38,1.266630889828523726418983369098965
39,1.271881213376445525959140949944621
40,1.276997785868675955461941855787444
41,1.281987262851525483335210800191304
42,1.286855814621024132476733266466000
43,1.291609172313045466362339194485038
44,1.296252668645024839062445012521770
45,1.300791274037460809005648332835091
46,1.305229628730252333726724274749016
47,1.309572071415447750515451741884885
48,1.313822664830395183643692516333361
49,1.317985218690621474959410774709693
50,1.32206331028764402098971582489977
51,1.32606030303145293722817510689726
52,1.32997936317905575598702141024649
53,1.33382347495802674565294378970656
54,1.33759545426644180773249571111263
55,1.34129796110710441556423312509932
56,1.34493351089389348845209396540749
57,1.34850448475086512985764580927342
58,1.35201313890994297199981796509372
59,1.35546161330027792193710622994589
60,1.35885193941133359650643261221492
61,1.36218604750218950598943220614674
62,1.36546577322125304126452055306613
63,1.36869286369332943018341274640554
64,1.37186898312468634898946183783829
65,1.37499571797121503462305660530205
66,1.37807458170994240470576586603851
67,1.38110701924988640066964762377698
68,1.38409441101449060869000134785835
69,1.38703807672456154235343377872865
70,1.38993927890770370272937347758367
71,1.39279922615764882778237289789447
72,1.39561907616457750068285081447525
73,1.39839993853547828017072684593551
74,1.40114287742177066757371047390001
75,1.40384891396978712397920644321606
76,1.40651902860825979430359944888059
77,1.40915416318565519658471925814336
78,1.41175522296903433664313188589764
79,1.41432307851506888826574703543444
80,1.41685856742290595342079070603480
81,1.41936249597772457553668397777248
82,1.42183564069306572832381860220730
83,1.42427874975932876882862283441872
84,1.42669254440520305169316271973254
85,1.42907772017824412541988765096320
86,1.43143494815028806605176216351381
87,1.43376487605294003287822647388055
88,1.43606812934794975304166904558485
89,1.43834531223690313975763109138668
90,1.44059700861431603213266301002087
91,1.44282378296789459251308864066622
92,1.44502618122943859975875285010608
93,1.44720473157960162178024353266852
94,1.44935994520947912193993774843085
95,1.45149231704177439988822447193650
96,1.45360232641409044528979821280351
97,1.45569043772671144078537725839475
98,1.45775710105706477623937904722391
99,1.45980275274290096413507446172551
100,1.46182781593608250556257967044706
101,1.46383270112874345209060976979330
102,1.46581780665345583409182477606059
103,1.46778351915893121247869172998954
104,1.46973021406267834609645151533936
105,1.47165825598194489326275670008814
106,1.47356799914418030169994335339297
107,1.47545978777817895915042933275485
108,1.47733395648698343741133645767264
109,1.47919083060355906899033953396120
110,1.48103072653018867545958120572292
111,1.48285395206247040538606504815255
112,1.48466080669875220608342113779267
113,1.48645158193578091763584065150666
114,1.48822656155129521988871219191582
115,1.48998602187425121459782933175422
116,1.49173023204332109328089745199713
117,1.49345945425427362830824882012261
118,1.49517394399680419366414783936177
119,1.49687395028134830809374379771589
120,1.49855971585638685111575747726287
121,1.50023147741671283513677860309210
122,1.50188946580311070377023975060697
123,1.50353390619386693353115999930050
124,1.50516501828851303626906752214284
125,1.50678301648417249343844213661356
126,1.50838811004486795600842908317463
127,1.50998050326412446592719321404828
128,1.51156039562118186786641551606502
129,1.51312798193111750673328724488068
130,1.51468345248916192457013186822646
131,1.51622699320947486634367982442407
132,1.51775878575863392692534218058860
133,1.51927900768407638997958902230423
134,1.52078783253772353351908604711190
135,1.52228542999499856854243873479759
136,1.52377196596944568964013356656818
137,1.52524760272314440851075325369723
138,1.52671249897309972933884776149989
139,1.52816680999378661908030928292651
140,1.52961068771601177973276487183071
141,1.53104428082225117217856108763892
142,1.53246773483861366792094412706873
143,1.53388119222357255486455445293255
144,1.53528479245359944365463243194145
145,1.53667867210583093332991407257437
146,1.53806296493789052629363328628067
147,1.53943780196498007964077054704227
148,1.54080331153435612184645575630070
149,1.54215961939729283574621128981912
150,1.54350684877863534866144465941468
151,1.54484512044403924389985758623411
152,1.54617455276498659277581091024402
153,1.54749526178166745681904083753573
154,1.54880736126381075938800630028009
155,1.55011096276954276265457203424647
156,1.55140617570235101629657101436738
157,1.55269310736622482447463336078538
158,1.55397186301904404916744559380876
159,1.5552425459242799226714545960998
160,1.5565052574010742067753065931636
161,1.5577600968727551947006647259397
162,1.5590071619138500168813878560049
163,1.5602465482956481038509585891750
164,1.5614783500303704428038615326506
165,1.5627026594139932280191423902414
166,1.5639195670677764207054291491438
167,1.5651291619785444505575926023748
168,1.5663315315377617479091545741109
169,1.5675267615794481685415367697976
170,1.5687149364169740542366679307767
171,1.5698961388787751235041342240981
172,1.5710704503430250591115485497493
173,1.5722379507713011947193656949206
174,1.5733987187412791441047940196691
175,1.5745528314784903578783601776738
176,1.5757003648871723140164527117856
177,1.5768413935802446027178859865945
178,1.5779759909084400599512356666175
179,1.5791042289886173946091737935333
180,1.5802261787312862556392759231774
181,1.5813419098673673877078694001549
182,1.5824514909742155707527524814362
183,1.5835549895009283926690483677267
184,1.5846524717929650966346357245700
185,1.5857440031160973111687788229494
186,1.5868296476797126315132957515749
187,1.5879094686594948528040308265469
188,1.5889835282194962913167921476309
189,1.5900518875336259248454227342774
190,1.5911146068065690032563980516608
191,1.5921717452941573517380861215309
192,1.5932233613232067489134570046004
193,1.5942695123108396836291744675032
194,1.5953102547833068311682304500776
195,1.5963456443943251812087399458977
196,1.5973757359429465093921969844874
197,1.5984005833909705677850556723086
198,1.5994202398799171561753118868825
199,1.6004347577475699080202923884630
200,1.6014441885441057312071794827026
201,1.6024485830478208800056322214678
202,1.6034479912804670343246169140297
203,1.6044424625222080409559338093382
204,1.6054320453262089316666607019205
205,1.6064167875328671834531420511306
206,1.6073967362836992396541599823410
207,1.6083719380348881625492933792840
208,1.6093424385705066388478999928943
209,1.6103082830154210808968405609455
210,1.6112695158478883192067435591327
211,1.6122261809118522452538468908130
212,1.6131783214289506316801388430511
213,1.6141259800102365077806029540868
214,1.6150691986676290659615503441809
215,1.6160080188250933053955962073927
216,1.6169424813295623673244333736886
217,1.6178726264616065210454824414956
218,1.6187984939458577730260969239593
219,1.6197201229611933720748941206633
220,1.6206375521506907186914862915453
221,1.6215508196313515808779351122911
222,1.6224599630036128137707510394456
223,1.6233650193606371439177875669671
224,1.6242660252973990774914715590444
225,1.6251630169195684889739428572754
226,1.6260560298521954282478004683085
227,1.6269450992482047889319468380216
228,1.6278302597967026481546873453365
229,1.6287115457311014299001110727594
230,1.6295889908370685781570818884884
231,1.6304626284603005291259664276730
232,1.6313324915141323913885950464003
233,1.6321986124869783195303595220433
234,1.6330610234496187272648782514045
235,1.6339197560623275111452988774987
236,1.6347748415818489836147614900663
237,1.6356263108682281355068222027940
238,1.6364741943914959589902818140591
239,1.6373185222382152665216090182890
240,1.6381593241178891592045534422331
241,1.6389966293692364258874999529272
242,1.6398304669663367289305995546354
243,1.6406608655246496073970425132072
244,1.6414878533069089858854582653410
245,1.6423114582288975620948648651664
246,1.6431317078651035916702088275039
247,1.6439486294542614520939052283244
248,1.6447622499047835661577303270703
249,1.6455725958000786535102270914996
250,1.6463796934037666943799853598055
251,1.6471835686647885048815539199119
252,1.6479842472224127217982232717481
253,1.6487817544111452684396080489146
254,1.6495761152655409578256603066763
255,1.6503673545249211126208578063326
256,1.6511554966379972865801647900154
257,1.6519405657674074782454180988347
258,1.6527225857941612809454675112306
259,1.6535015803220007719450180572543
260,1.6542775726816775264411075155875
261,1.6550505859351460694589454075551
262,1.6558206428796784903732615151843
263,1.6565877660518990699368847506529
264,1.6573519777317443699684315004477
265,1.6581132999463473102262007938083
266,1.6588717544738473994997246097686
267,1.6596273628471303334500772608830
268,1.6603801463574969921972443750746
269,1.6611301260582661068525314998839
270,1.6618773227683063184194602160156
271,1.6626217570755069122984733495109
272,1.6633634493401812072384330058431
273,1.6641024196984100411277991234554
274,1.6648386880653225619219760576083
275,1.6655722741383181985645143299287
276,1.6663031974002280895331322988476
277,1.6670314771224234523026332670501
278,1.6677571323678626476507382405384
279,1.6684801819940884412533987864108
280,1.6692006446561675554177184671812
281,1.6699185388095803997576102784241
282,1.6706338827130584770624268702287
283,1.6713466944313726767872212002039
284,1.6720569918380696126816640507534
285,1.6727647926181628118006793581505
286,1.6734701142707747796237078454626
287,1.6741729741117350005560376633766
288,1.6748733892761302755704135723022
289,1.6755713767208120450348627270027
290,1.6762669532268614292364448247807
291,1.6769601354020098275232159132290
292,1.6776509396830179609528807639626
293,1.6783393823380172642049156860412
294,1.6790254794688086636531290914127
295,1.6797092470131208287250835204422
296,1.6803907007468354820907457224790
297,1.6810698562861697003875385636379
298,1.6817467290898245222145849073547
299,1.6824213344610966662339445243370
300,1.6830936875499551099640119736213
301,1.6837638033550829406822962092932
302,1.6844316967258865713498506652535
303,1.6850973823644694946656593029557
304,1.6857608748275741527597481098216
305,1.6864221885284933510310505535143
306,1.6870813377389504793290865211006
307,1.6877383365909457224325020280903
308,1.6883931990785757382521411385858
309,1.6890459390598228930239744947454
310,1.6896965702583143886371911390362
311,1.6903451062650548770002102594679
312,1.6909915605401300745766725521859
313,1.6916359464143827698392171337957
314,1.6922782770910630279148354809775
315,1.6929185656474519120639412959171
316,1.6935568250364600976352948611378
317,1.6941930680881989171009461231516
318,1.6948273075115291874161605742584
319,1.6954595558955849612659920509981
320,1.6960898257112722034564107439914
321,1.6967181293127463113842732945487
322,1.6973444789388645940168877549634
323,1.6979688867146172234197985719121
324,1.6985913646525356359728899548565
325,1.6992119246540801452552252753842
326,1.6998305785110050038252282255366
327,1.7004473379067037346515470607512
328,1.7010622144175319213892763201742
329,1.7016752195141124323599121709360
330,1.7022863645626195099011292276820
331,1.7028956608260431636624620737323
332,1.7035031194654349290710285506589
333,1.7041087515411353695045943983579
334,1.7047125680139815061777487853472
335,1.7053145797464984906558422391581
336,1.7059147975040715780303631033239
337,1.7065132319561012729838001917620
338,1.7071098936771427075782828520668
339,1.7077047931480253152567022262046
340,1.7082979407569588923791463033441
341,1.7088893468006217608541494235083
342,1.7094790214852335289964411161262
343,1.7100669749276120883822979304824
344,1.7106532171562148403920448906519
345,1.7112377581121659717558150533319
346,1.7118206076502672538801025732646
347,1.7124017755399959312951670939268
348,1.7129812714664865109305995152056
349,1.7135591050314999971251439197254
350,1.7141352857543781146944054067516
351,1.7147098230729846076422867864138
352,1.7152827263446332958643431110683
353,1.7158540048470021742040385929875
354,1.7164236677790349683216240476270
355,1.7169917242618305126426041387568
356,1.7175581833395181601578726797258
357,1.7181230539801224631046443104255
358,1.7186863450764163685185686588117
359,1.7192480654467586737870741333252
360,1.7198082238359246801133421530978
361,1.7203668289159217887512069503674
362,1.7209238892867965216026014712490
363,1.7214794134774275617817459936669
364,1.7220334099463098381328335565192
365,1.7225858870823278900600495112227
366,1.7231368532055173903329151724336
367,1.7236863165678177178698041741945
368,1.7242342853538123692226258641839
369,1.7247807676814618413013244422629
370,1.7253257716028246985081625069786
371,1.7258693051047696775847780185425
372,1.7264113761096777866463071870879
373,1.7269519924761343651129776671349
374,1.7274911619996154130134694018381
375,1.7280288924131588812256480798341
376,1.7285651913880323788652083269595
377,1.7291000665343890870289530117240
378,1.7296335254019150462988559518705
379,1.7301655754804696578055454512182
380,1.7306962242007161546104779652942
381,1.7312254789347449188394656928194
382,1.7317533469966867627325016686616
383,1.7322798356433208482678302161412
384,1.7328049520746722090563670136273
385,1.7333287034346024957571365880097
386,1.7338510968113946036612833761802
387,1.7343721392383269317760617234314
388,1.7348918376942412102014484199539
389,1.7354101991041045704782468933673
390,1.7359272303395630480072194253565
391,1.7364429382194868334718765799150
392,1.7369573295105108816340432614762
393,1.7374704109275683509801181249473
394,1.7379821891344154553060632233842
395,1.7384926707441505841047990727012
396,1.7390018623197273426142462179648
397,1.7395097703744611414242892298366
398,1.7400164013725293437677343664991
399,1.7405217617294635362761536221879
400,1.7410258578126382231491121521035
401,1.7415286959417519926456679012493
402,1.7420302823893019011053580044458
403,1.7425306233810538952280354194074
404,1.7430297250965071656922235339776
405,1.7435275936693498975473389414092
406,1.7440242351879125264041744844038
407,1.7445196556956156171335468572702
408,1.7450138611914098682573481682757
409,1.7455068576302111030987496871184
410,1.7459986509233327621601645164426
411,1.7464892469389101567365873599696
412,1.7469786515023200663444244347489
413,1.7474668703965967590146616072867
414,1.7479539093628408582870492442703
415,1.7484397741006253408573173205980
416,1.7489244702683950945012000920441
417,1.7494080034838628847528913275840
418,1.7498903793243988935640248921766
419,1.7503716033274181084462808439399
420,1.7508516809907605440097106480749
421,1.7513306177730682480718095515732
422,1.7518084190941583739302077464649
423,1.7522850903353901549302208575625
424,1.7527606368400293950427365888832
425,1.7532350639136068548029751706296
426,1.7537083768242741394408846710539
427,1.7541805808031545738234561894842
428,1.7546516810446890778867409237294
429,1.7551216827069809549355984662770
430,1.7555905909121324549061325680913
431,1.7560584107465806162350231454134
432,1.7565251472614295358392676358834
433,1.7569908054727744050924939676500
434,1.7574553903620284097235192129863
435,1.7579189068762403173002240613466
436,1.7583813599284106532773764311038
437,1.7588427543978046269657105297309
438,1.7593030951302607894744638338657
439,1.7597623869384961049194454459178
440,1.7602206346024085060962838257788
441,1.7606778428693740944596835490890
442,1.7611340164545425480409446777738
443,1.7615891600411303849854731090291
444,1.7620432782807067020673996899124
445,1.7624963757934807188258119776881
446,1.7629484571685821516569155143663
447,1.7633995269643415870159122128503
448,1.7638495897085640719151609294076
449,1.7642986498988037622075662621810
450,1.7647467120026317810803628769587
451,1.7651937804579047908381126184019
452,1.7656398596730271193061894463960
453,1.7660849540272121839105941132196
454,1.7665290678707396023656002073283
455,1.7669722055252116138253940955040
456,1.7674143712838041074801895802078
457,1.7678555694115169542875447804765
458,1.7682958041454200377169140129585
459,1.7687350796948974974142969166104
460,1.7691734002418898281121279198087
461,1.7696107699411316834904103641344
462,1.7700471929203885980212760580880
463,1.7704826732806912305490453316375
464,1.7709172150965652904925644911362
465,1.7713508224162611153862435164095
466,1.7717834992619800304378346678237
467,1.7722152496300967705989876892477
468,1.7726460774913829807705222403861
469,1.7730759867912242708187710510577
470,1.7735049814498383499243339160901
471,1.7739330653624885073495658888421
472,1.7743602423996967372162984018125
473,1.7747865164074518581758709565422
474,1.7752118912074201319438819817849
475,1.7756363705971473034339062127191
476,1.7760599583502645762744153737259
477,1.7764826582166888566827357882824
478,1.7769044739228219416640474018193
479,1.7773254091717475408950044705556
480,1.7777454676434265268523451103090
481,1.7781646529948889640359093800892
482,1.7785829688604264860510970573411
483,1.7790004188517804005216657321957
484,1.7794170065583283415644361782792
485,1.7798327355472709466752878520647
486,1.7802476093638131427938083419408
487,1.7806616315313468903024868350034
488,1.7810748055516299814191984309051
489,1.7814871349049641210550247144897
490,1.7818986230503701531533863095144
491,1.7823092734257625666805706014736
492,1.7827190894481218693425281571183
493,1.7831280745136648039200873479273
494,1.7835362319980135011460666763112
495,1.7839435652563617614993923708973
496,1.7843500776236417102173232179545
497,1.7847557724146865109209591877469
498,1.7851606529243930829838958189837
499,1.7855647224278823198358081076167
500,1.785967984180658938542289685877
501,1.786370441418766706541357185652
502,1.786772097358946500552071994720
503,1.787172955198788665616339754293
504,1.787573018116887517940347483369
505,1.787972289272990838828630524569
506,1.788370771808150089620903155019
507,1.788768468844869195478348940743
508,1.789165383487251537794203644689
509,1.789561518821143385932814834060
510,1.789956877914279821341154984039
511,1.790351463816426384918575724944
512,1.790745279559520347645695704584
513,1.791138328157810220013609578923
514,1.791530612607994176523742151471
515,1.791922135889357769360120617544
516,1.792312900963909141430809377347
517,1.792702910776512813375500596014
518,1.793092168255023829784020662540
519,1.793480676310419046430924667752
520,1.793868437836928415389900055408
521,1.794255455712163063118355906821
522,1.794641732797244437576442374093
523,1.795027271936930961399284260220
