Eigenstate,Potential Energy
1,0.500000000067490923927123965309140296
2,0.64623093809166074664251437688209789
3,0.73633761099904667411136195821595546
4,0.79966528050964783856564332880532300
5,0.8480465799547009919815256879918676
6,0.8870660040951714761479145420359024
7,0.9197208343721925391187421641351930
8,0.9477838571642868263717698249940072
9,0.9723835714786669108459427814967912
10,0.9942802314645117370884514767376298
11,1.0140094072632904454762455572730891
12,1.0319621941799626508070925078436871
13,1.0484327222806076135444655462434330
14,1.0636476892486072773571968236116150
15,1.0777854761988441311405474124595560
16,1.090988952548154493967255183118812
17,1.103374309476838298034798616498666
18,1.115037310934862293651808541312181
19,1.126057816745840313370637329555854
20,1.136503120240971628407213472579987
21,1.146430454340739536839040712794228
22,1.155888902713652552762544035683869
23,1.164920877712769864647448970508696
24,1.173563277776124114418433130965615
25,1.181848404222648274418184754953162
26,1.189804695059763783270567990221145
27,1.197457317945956691243433894320950
28,1.204828653549817750285620781482019
29,1.211938692751994558036538424263710
30,1.218805365487016292731069996338574
31,1.225444814876013073648220183652466
32,1.231871627223452395444041731141316
33,1.238099026141367279429318728636573
34,1.244139037314004517856514659162321
35,1.250002629076626320965863617188504
36,1.255699832948719797538531190573592
37,1.261239847457784150852895222106160
38,1.266631127959446728547460366763446
39,1.271881464661810415185568635761142
40,1.276998050666114072626132376334323
41,1.281987541519037459471007742127260
42,1.286856107516989459266874586243154
43,1.291609479796232102154787360057733
44,1.296252991074598849102670851955600
45,1.300791611772996038816757481695680
46,1.305229982131740114801002178111994
47,1.309572440843306637675228384079111
48,1.313823050645480723593393775843417
49,1.317985621254236005689447796814266
50,1.32206372996154650181094942411088
51,1.32606074017786880931665769808097
52,1.32997981816068683340528992153186
53,1.33382394813806113688869961466442
54,1.33759594600856386786016447201116
55,1.34129847177550472919093704926729
56,1.34493404085327888365851550879028
57,1.34850503436646872338710125283038
58,1.35201370854753424598669933275535
59,1.35546220332617283249896516585636
60,1.35885255019240471455368854607004
61,1.36218667940587619063289371255360
62,1.36546642661557164622456978716700
63,1.36869353894688354362577542995325
64,1.37186968060667706723154879868973
65,1.37499643805145127017232128413543
66,1.37807532475885122910716061326675
67,1.38110778563852342265373498086236
68,1.38409520111455038812652433707737
69,1.38703889090838804052753417060404
70,1.38994011754830076946874404328095
71,1.39280008962869072597456647478317
72,1.39561996484041946873160390625616
73,1.39840085279116713294973899600757
74,1.40114381763305543644500246098117
75,1.40384988051312973645172449231606
76,1.40652002186084579391554259671512
77,1.40915518352540450360093468299150
78,1.41175627077461205016621234985813
79,1.41432415416589613036663508089201
80,1.41685967129917075590150012271441
81,1.41936362846039280994462971947297
82,1.42183680216389207984366599658618
83,1.42427994060086775468407193189578
84,1.42669376500082008469733655954164
85,1.42907897091212662331928041481667
86,1.43143622940745660731467859621694
87,1.43376618821925955958490507052218
88,1.43606947281014082153918426607682
89,1.43834668738255321974862101497154
90,1.44059841583189085487292622786601
91,1.44282522264674954879906278609113
92,1.44502765375983018839173207635761
93,1.44720623735269894920015162105141
94,1.44936148461737545372742519469735
95,1.45149389047749876483983327317828
96,1.45360393427161929277674651035596
97,1.45569208040098035211282651865403
98,1.45775877894398023072867132930894
99,1.45980446623935216065790377295937
100,1.46182956543995324026186639821769
101,1.46383448703892405302925341670329
102,1.46581962936985515357644660464028
103,1.46778537908248867781186949722046
104,1.46973211159537606951750567166207
105,1.47166019152681984184310953346530
106,1.47356997310533652796583483329530
107,1.47546180056079989321208427550995
108,1.47733600849734424138445408022906
109,1.47919292224903905450226139813270
110,1.48103285821928378503937710844862
111,1.48285612420480575854440710228678
112,1.48466301970509471089519379852318
113,1.48645383621805194864531582529258
114,1.48822885752258336316411763160839
115,1.48998835994882508076938974130893
116,1.49173261263664219940359609852530
117,1.49346187778300934939793608513310
118,1.49517641087884078476291829006264
119,1.49687646093580399772808382845353
120,1.49856227070362500701866950827214
121,1.50023407687835520311256327694998
122,1.50189211030205072058864813549592
123,1.50353659615428311474536311065691
124,1.50516775413588243985995708166229
125,1.50678579864528426019589247369426
126,1.50839093894783692756838169406608
127,1.50998337933840488139167690116696
128,1.51156331929758113994214298678123
129,1.51313095364181007833300878956217
130,1.51468647266770320682946493968308
131,1.51623006229081525901501892079887
132,1.51776190417913292211946078500554
133,1.51928217588151676023417438276535
134,1.52079105095132560518303713366164
135,1.52228869906543458147375628000610
136,1.52377528613885424422459224545582
137,1.52525097443514500101817115767111
138,1.52671592267280737664335940768453
139,1.52817028612782657378079148276826
140,1.52961421673253433671951342732629
141,1.53104786317094656770216816553019
142,1.53247137097072707222978149579245
143,1.53388488259191915948732909396200
144,1.53528853751257964441501775122801
145,1.53668247231144561019088325610089
146,1.53806682074775642113966201354656
147,1.53944171383834527311723196156342
148,1.54080727993211561038627003008292
149,1.54216364478200420992521756050582
150,1.54351093161453457403491851125127
151,1.54484926119705654548465654877739
152,1.54617875190276244435369230611361
153,1.54749951977356867624871081308275
154,1.54881167858094671112545386982500
155,1.55011533988478166869313576479000
156,1.55141061309033637675090761885279
157,1.55269760550339194904458357068025
158,1.55397642238363670073088855261907
159,1.5552471669963670742676903396257
160,1.5565099406625669132537719543424
161,1.5577648428074235803226233732838
162,1.5590119710073403801757838969281
163,1.5602514210355001410388058186438
164,1.5614832869060345911195063894564
165,1.5627076609168481302705796462399
166,1.5639246336911465124296680347898
167,1.5651342942177176711414026882386
168,1.5663367298900073770601580402362
169,1.5675320265440347895088626510769
170,1.5687202684951876451957172838138
171,1.5699015385739372785344237417346
172,1.5710759181605113402124528626272
173,1.5722434872185596163234766435179
174,1.5734043243278487915646525301724
175,1.5745585067160201414180881778313
176,1.5757061102894398596558216270697
177,1.5768472096631752816927709458396
178,1.5779818781901261581708137211553
179,1.5791101879893374237071436221134
180,1.5802322099735244071932484007404
181,1.5813480138758331322183705662150
182,1.5824576682758634029906463537855
183,1.5835612406249777250181028132199
184,1.5846587972709203020735586026380
185,1.5857504034817679175557685472037
186,1.5868361234692336688539454303140
187,1.5879160204113473552026085846824
188,1.5889901564745279553297715436748
189,1.5900585928350719259752748988246
190,1.5911213897000729723431963552054
191,1.5921786063277925130263142729421
192,1.5932303010474972215912739800126
193,1.5942765312787819486578547186213
194,1.5953173535503913652399480835407
195,1.5963528235185582596921202035360
196,1.5973829959848721801455803798610
197,1.5984079249136927977396305605990
198,1.5994276634491221526112461793244
199,1.6004422639315486164820826587767
200,1.6014517779137765120256425922064
201,1.6024562561767523654176472674849
202,1.6034557487449011682043001802493
203,1.6044503049010833031941943449992
204,1.6054399732011837492601288159968
205,1.6064248014883435303869321334989
206,1.6074048369068464276877276375504
207,1.6083801259156668250393057084224
208,1.6093507143016929097664378971769
209,1.6103166471926309712298915193187
210,1.6112779690696022929421425488312
211,1.6122347237794399971953637983944
212,1.6131869545466960693497115936883
213,1.6141347039853629396987154491842
214,1.6150780141103245986217163507737
215,1.6160169263485364512778987826909
216,1.6169514815499478663199594912172
217,1.6178817199981713776926125561478
218,1.6188076814209075119879361616792
219,1.6197294050001285143171305724661
220,1.6206469293820334808485945653507
221,1.6215602926867728003267127597765
222,1.6224695325179591019600819938549
223,1.6233746859719582705347159051265
224,1.6242757896469755880749449197151
225,1.6251728796519395586197451560526
226,1.6260659916151869540803214505062
227,1.6269551606929577240508097823731
228,1.6278404215777015797985806165834
229,1.6287218085062034046029907713912
230,1.6295993552675321767063165315209
231,1.6304730952108151941670697877688
232,1.6313430612528480105563114958517
233,1.6322092858855350670213209772300
234,1.6330718011831771668038517902225
235,1.6339306388095989633335022312456
236,1.6347858300251261606861553820749
237,1.6356374056934160465563546975536
238,1.6364853962881430887761844478248
239,1.6373298318995450309832480602336
240,1.6381707422408316408770594154596
241,1.6390081566544603924338836082347
242,1.6398421041182819380536369772456
243,1.6406726132515594014341959585274
244,1.6414997123208631794321174936609
245,1.6423234292458456260440732344933
246,1.6431437916048981371002856088040
247,1.6439608266406920174789969651394
248,1.6447745612656107114210810522777
249,1.6455850220670683644852853205923
250,1.6463922353127251012903245234225
251,1.6471962269555969184973593632045
252,1.6479970226390629909739510894742
253,1.6487946477017754627859770212994
254,1.6495891271824713793176772955117
255,1.6503804858246906399928997364411
256,1.6511687480814000564097662881014
257,1.6519539381195299066783101888458
258,1.6527360798244194300657912411944
259,1.6535151968041780648477405135768
260,1.6542913123939628151167748541185
261,1.6550644496601720596552720352957
262,1.6558346314045605276528331753459
263,1.6566018801682742912061902761026
264,1.6573662182358112248104493953908
265,1.6581276676389054564259988217319
266,1.6588862501603379772111325108376
267,1.6596419873376766225108381973063
268,1.6603949004669454571606194887909
269,1.6611450106062278343642085254778
270,1.6618923385791988516313168967290
271,1.6626369049785964870727792848056
272,1.6633787301696253949618962897637
273,1.6641178342933008030187338618434
274,1.6648542372697297197802152600401
275,1.6655879588013333269815166173043
276,1.6663190183760088346472398038445
277,1.6670474352702382822543894767991
278,1.6677732285521360399630721504422
279,1.6684964170844465124332116303235
280,1.6692170195274841381484717891257
281,1.6699350543420235731255504788877
282,1.6706505397921375553347209118816
283,1.6713634939479856623361661034901
284,1.6720739346885511187266457987033
285,1.6727818797043324607181037869203
286,1.6734873464999860826548461475273
287,1.6741903523969247248244859018809
288,1.6748909145358683044026090559236
289,1.6755890498793517376611833120619
290,1.6762847752141904860359914327265
291,1.6769781071539016670608747407599
292,1.6776690621410836151464844891860
293,1.6783576564497577980485693565996
294,1.6790439061876681260141532183352
295,1.6797278272985397408238116628391
296,1.6804094355643048703671064553481
297,1.6810887466072856805525381396728
298,1.6817657758923434413822738528759
299,1.6824405387289908101280027242181
300,1.6831130502734689822928350422495
301,1.6837833255307901218783286522999
302,1.6844513793567471639724239357851
303,1.6851172264598881628714367974967
304,1.6857808814034587633517811372608
305,1.6864423586073142237066178838719
306,1.6871016723498002538556249372860
307,1.6877588367695998505948233493052
308,1.6884138658675536085269913091712
309,1.6890667735084495960547566793168
310,1.6897175734227831316991524599085
311,1.6903662792084900557666932849379
312,1.6910129043326510106191922724976
313,1.6916574621331681224177586202518
314,1.6922999658204158887407078075592
315,1.6929404284788655918470280392938
316,1.6935788630686846133563227243473
317,1.6942152824273081890832625235797
318,1.6948496992709889554059640059370
319,1.6954821261963214288673275262905
320,1.6961125756817414204070215099984
321,1.6967410600890043032995102596475
322,1.6973675916646382493745819713691
323,1.6979921825413759477050938876285
324,1.6986148447395637830513071786749
325,1.6992355901685502361950030362085
326,1.6998544306280517435440657489693
327,1.7004713778094988369199349721952
328,1.7010864432973597528837133581155
329,1.7016996385704464866214767817810
330,1.7023109750031997222198900273324
331,1.7029204638669540780787493818143
332,1.7035281163311847288541447552947
333,1.7041339434647357826452366305537
334,1.7047379562370285976080883398998
335,1.7053401655192543530913474409335
336,1.7059405820855469335120210324203
337,1.7065392166141389973867318291558
338,1.7071360796885022905431457920698
339,1.7077311817984682681936447965084
340,1.7083245333413351173927574881048
341,1.7089161446229568936379226018109
342,1.7095060258588172689504394030738
343,1.7100941871750875294155219622339
344,1.7106806386096688160828224042784
345,1.7112653901132204287609468581730
346,1.7118484515501716677006735476594
347,1.7124298326997207787332367194713
348,1.7130095432568178137970815793788
349,1.7135875928331349519917062953767
350,1.7141639909580218237191651513699
351,1.7147387470794479257380513229886
352,1.7153118705649318097238886604058
353,1.7158833707024563289475262689239
354,1.7164532567013713577830013319167
355,1.7170215376932843495722428045938
356,1.7175882227329369428814333611169
357,1.7181533207990708554473567717959
358,1.7187168407952823100761500552420
359,1.7192787915508607379049536144796
360,1.7198391818216206972173983589494
361,1.7203980202907187529640188864650
362,1.7209553155694617988722549863469
363,1.7215110761981014180518221533502
364,1.7220653106466193063856725482397
365,1.7226180273155019953797243488486
366,1.7231692345365037524488697986028
367,1.7237189405734005509656981335762
368,1.7242671536227318991272859133096
369,1.7248138818145351605113698942727
370,1.7253591332130680798351421810787
371,1.7259029158175223675687729423008
372,1.7264452375627273002334507244556
373,1.7269861063198433034554069217326
374,1.7275255298970498266219308010884
375,1.7280635160402182010790268646032
376,1.7286000724335809384660327222232
377,1.7291352067003892587855599168263
378,1.7296689264035620160140042123718
379,1.7302012390463278614563497124510
380,1.7307321520728574020202537164760
381,1.7312616728688882292662599559342
382,1.7317898087623399378272223713083
383,1.7323165670239238082961250872070
384,1.7328419548677421187281460969919
385,1.7333659794518807064619815077086
386,1.7338886478789954393767038896039
387,1.7344099671968883463901011987164
388,1.7349299443990773444763192812881
389,1.7354485864253602373763198480115
390,1.7359659001623701756069632511903
391,1.7364818924441228952147901739173
392,1.7369965700525593441680658394862
393,1.7375099397180811704057451557701
394,1.7380220081200776531714394118189
395,1.7385327818874469350600008235263
396,1.7390422675991112062015188106276
397,1.7395504717845254710617678539453
398,1.7400574009241799065795296668188
399,1.7405630614500943780239379511048
400,1.7410674597463094131404126710411
401,1.7415706021493696841233809850291
402,1.7420724949488007432663233728019
403,1.7425731443875818336761958836472
404,1.7430725566626126688007410429462
405,1.7435707379251716468914731962506
406,1.7440676942813716101236760337058
407,1.7445634317926102657954861991015
408,1.7450579564760127735226723379446
409,1.7455512743048693602367978788686
410,1.7460433912090704782163697314963
411,1.7465343130755337669347300933975
412,1.7470240457486264020938585355254
413,1.7475125950305839117091572181298
414,1.7479999666819218839005431898384
415,1.7484861664218448511926876133395
416,1.7489711999286487818057637195756
417,1.7494550728401200272991735440170
418,1.7499377907539278906916679049566
419,1.7504193592280150944830832208484
420,1.7508997837809811314271904407132
421,1.7513790698924624511920257318676
422,1.7518572230035087654823006529572
423,1.7523342485169533087572788912478
424,1.7528101517977806692842282144199
425,1.7532849381734885709238489620656
426,1.7537586129344472135524964318247
427,1.7542311813342536578326271846993
428,1.7547026485900812691298610041012
429,1.7551730198830281340970645252466
430,1.7556423003584573131891916914420
431,1.7561104951263364339496102129968
432,1.7565776092615737757941771476983
433,1.7570436478043461854256865268541
434,1.7575086157604299220877024820619
435,1.7579725181015222576223972045871
436,1.7584353597655617336534409808899
437,1.7588971456570452386127350001836
438,1.7593578806473408880678862158304
439,1.7598175695749973910677039654485
440,1.7602762172460509751731488336943
441,1.7607338284343270315112143755975
442,1.7611904078817400450130793865166
443,1.7616459602985914590917487585669
444,1.7621004903638600957144687625604
445,1.7625540027254944631617956955774
446,1.7630065020006979774833823015447
447,1.7634579927762142685265033311525
448,1.7639084796086057904843279447649
449,1.7643579670245335792540282496665
450,1.7648064595210303108734881866190
451,1.7652539615657741660072941488218
452,1.7657004775973563437431871860497
453,1.7661460120255479697382149448433
454,1.7665905692315627896703803814642
455,1.7670341535683192739306222176980
456,1.7674767693606974326615806536977
457,1.7679184209057950390105100264974
458,1.7683591124731796587073987226633
459,1.7687988483051390021588137144739
460,1.7692376326169292437260238892978
461,1.7696754695970191602891994567948
462,1.7701123634073333045895911802881
463,1.7705483181834928196204258868210
464,1.7709833380350520575339942851411
465,1.7714174270457349744241038497992
466,1.7718505892736684343762083119135
467,1.7722828287516117060587998124725
468,1.7727141494871871703249296095067
469,1.7731445554631047184221268829098
470,1.7735740506373873683263931448784
471,1.7740026389435923693537924611446
472,1.7744303242910320957919383848252
473,1.7748571105649900836589668470621
474,1.7752830016269397178750830446628
475,1.7757080013147544959757868604858
476,1.7761321134429223856331713526480
477,1.7765553418027546125330838379370
478,1.7769776901625935582431074000100
479,1.7773991622680186611893532329877
480,1.7778197618420507191623885574153
481,1.7782394925853531481660124564034
482,1.7786583581764337704294584540823
483,1.7790763622718425157366286505026
484,1.7794935085063678600754932104197
485,1.7799098004932334828601440159701
486,1.7803252418242897319991155138786
487,1.7807398360702067502068005352059
488,1.7811535867806638637649891210642
489,1.7815664974845384667000684621745
490,1.7819785716900922684042465558474
491,1.7823898128851570440271655070957
492,1.7828002245373184810032636135750
493,1.7832098100940981020508719517120
494,1.7836185729831343641439427206014
495,1.7840265166123611315831722187741
496,1.7844336443701867733570581030444
497,1.7848399596256695762563207142746
498,1.7852454657286934250982238888915
499,1.7856501660101412536591932829492
500,1.786054063782068403239694103036
501,1.786457162337871641509793255368
502,1.786859464952461303610478629143
503,1.787260974882428030624650168589
504,1.787661695366211956450957338052
505,1.788061629624267197932086140161
506,1.788460780859227385940674421739
507,1.788859152256070093273542240576
508,1.789256746982279807372806932054
509,1.789653568188007687049477712109
510,1.790049619006234164984122214897
511,1.790444902552927635866161138398
512,1.790839421927203139406800076333
513,1.791233180211479663291578639405
514,1.791626180471636752121319007274
515,1.792018425757170806535634631090
516,1.792409919101349293092015161109
517,1.792800663521363950188339783170
518,1.793190662018484786285948630056
519,1.793579917578211663579094026770
520,1.793968433170426335658608475475
521,1.794356211749541746296795708085
522,1.794743256254652877822260354015
523,1.795129569609685598885521042990
