Eigenstate,Potential Energy
1,0.500000000028258600418203240111080619
2,0.64623093783557195743094193881602892
3,0.73633761024680366099580120247078894
4,0.79966527894280337891719673227516090
5,0.8480465772405877482350704927909636
6,0.8870659998952886244577306266709831
7,0.9197208283452945113195715309512079
8,0.9477838489676702057156585106266989
9,0.9723835607687677028950850012212656
10,0.9942802178972074634258353529408816
11,1.0140093904940632801331542938388147
12,1.0319621738639917448390116226700074
13,1.0484326980728228680380067032720645
14,1.0636476608037209286030905904947317
15,1.0777854431713689489393022335377129
16,1.090988914592413569569124054747887
17,1.103374266246969359818948442001391
18,1.115037262084818351517041954408947
19,1.126057761929387772657861137926163
20,1.136503059111686617241882196803290
21,1.146430386552002944579365546051191
22,1.155888827918644120236073200808050
23,1.164920795564461564218151427465963
24,1.173563187927272989305784825479174
25,1.181848306325788859873492347232404
26,1.189804588767200199681361404728234
27,1.197457202909754476243650506308610
28,1.204828529421795480446977279153062
29,1.211938559183715298703608666527978
30,1.218805222129778905702824767442653
31,1.225444661380843405795033906028810
32,1.231871463241094366356463571198929
33,1.238098851322273882386366199052659
34,1.244138851308328745467706173907690
35,1.250002431534212024560964695286958
36,1.255699623519092487591498905705383
37,1.261239625790141744313901399372984
38,1.266630893702650247832270207936174
39,1.271881217464374642669755907247575
40,1.276997790176198163763596739010732
41,1.281987267384435517064917158832513
42,1.286855819385121070937764761000071
43,1.291609177314132842653188861593760
44,1.296252673888910748785263378362259
45,1.300791279529958019332143205130637
46,1.305229634477178392803255576511431
47,1.309572077422625097192191347393721
48,1.313822671103651257515368447848192
49,1.317985225235788826707385656616760
50,1.32206331711056042301705385267040
51,1.32606031013796149458096401255011
52,1.32997937057500501755659931316883
53,1.33382348264927081565487521171207
54,1.33759546225884045745915390439027
55,1.34129796940652319540874185926597
56,1.34493351950620384020214153848380
57,1.34850449368194449925835928047449
58,1.35201314816567492158546363362940
59,1.35546162288655224413189763098122
60,1.35885194933404642699517723789225
61,1.36218605776724343735913738179973
62,1.36546578383455723691844485848550
63,1.36869287466079973852934222216357
64,1.37186899445224541790428115645575
65,1.37499572966479242619592568763451
66,1.37807459377547471026243353495545
67,1.38110703169331735608063663280833
68,1.38409442384177120996557317356735
69,1.38703808994165016152841176667624
70,1.38993929252056620404103727084124
71,1.39279924017225868414478552074150
72,1.39561909058691591046108795602979
73,1.39839995337153428425859668734366
74,1.40114289267754126677865838781727
75,1.40384892965127739671819005625494
76,1.40651904472148301461380047198847
77,1.40915417973663295245305103694812
78,1.41175523996379664865857299031868
79,1.41432309595965432859860065764645
80,1.41685858532336176513303970555661
81,1.41936251434010679222766961736466
82,1.42183565952343929411553944965849
83,1.42427876906376765869498863850040
84,1.42669256418979039213761704462941
85,1.42907774044907231550584070478827
86,1.43143496891345889879034107850961
87,1.43376489731456481697788564125361
88,1.43606815111414943502425469450607
89,1.43834533451380842644553932106170
90,1.44059703140806751351176936020818
91,1.44282380628464286497616998998595
92,1.44502620507534438973416688702141
93,1.44720475596083590975066587695456
94,1.44935997013222326685598853871789
95,1.45149234251222026398187876059950
96,1.45360235243844051929248305901207
97,1.45569046431117896955571587858094
98,1.45775712820787388480556601205846
99,1.45980278046628678415691356966916
100,1.46182784423829130221824087963400
101,1.46383273001603275139320721515091
102,1.46581783613209455064094942557557
103,1.46778354923519977765205794747752
104,1.46973024474286883668687720008301
105,1.47165828727236116056570008134693
106,1.47356803105113810105688389661773
107,1.47545982030800607995339300143209
108,1.47733398964601983357391520809442
109,1.47919086439815698989058405311830
110,1.48103076096671279736017849771241
111,1.48285398714729796333726599154481
112,1.48466084243827312631418613668024
113,1.48645161833639795043874301506228
114,1.48822659861942407300414337285305
115,1.48998605961632068710311943571672
116,1.49173027046577320998997219033335
117,1.49345949336356377468748716775796
118,1.49517398379940125127016482995219
119,1.49687399078373479053881770232998
120,1.49855975706505904056670419681459
121,1.50023151933818091935308663226368
122,1.50188950844389891368731626317356
123,1.50353394956051368139458776287604
124,1.50516506238757105432581186190139
125,1.50678306132220897319098203698811
126,1.50838815562846468803782455162063
127,1.50998054959987798029114172534466
128,1.51156044271570357507840059882640
129,1.51312802979103383932894373039523
130,1.51468350112111447926701170933052
131,1.51622704262012054680063674497824
132,1.51775883595464508710779685979179
133,1.51927905867214097813698094049966
134,1.52078788432454523678084385970402
135,1.52228548258729695813887919876643
136,1.52377201937395636675470374079114
137,1.52524765694661915077011080413230
138,1.52671255402230663794729497514623
139,1.52816686587551026660514673035977
140,1.52961074443705335854717546079707
141,1.53104433838942864356869531109776
142,1.53246779325876191186391211940054
143,1.53388125150354352048406211695978
144,1.53528485260026230036107803671922
145,1.53667873312607222265180293021672
146,1.53806302683861431440717380282057
147,1.53943786475310811060464822999587
148,1.54080337521682797154875498717693
149,1.54215968398106606657052619994985
150,1.54350691427068566487928968039099
151,1.54484518685136064779653824855971
152,1.54617462009459154151694758509223
153,1.54749533004058702006497569580565
154,1.54880743045909477766345574296138
155,1.55011103290826000648083351379851
156,1.55140624679158934609372781064697
157,1.55269317941309135124123622376292
158,1.55397193603066529594517369408965
159,1.5552426199078019868023554390697
160,1.5565053323636629229592525364778
161,1.5577601728215962988607235175620
162,1.5590072388561493108448540963369
163,1.5602466262386316208538663606958
164,1.5614784289812846138268557897052
165,1.5627027393801050489626299261095
166,1.5639196480563736204120200411100
167,1.5651292439969356596898772029037
168,1.5663316145932766686909182043459
169,1.5675268456794377453706112402813
170,1.5687150215688106451776811999003
171,1.5698962250898526726694169485114
172,1.5710705376207592699386065462672
173,1.5722380391231297041533345990276
174,1.5733988081746616976944038583159
175,1.5745529220009089857939434687043
176,1.5757004565061315079986617184650
177,1.5768414863032714939658419574178
178,1.5779760847430845979588148666184
179,1.5791043239424525269583586952004
180,1.5802262748119081087594349973019
181,1.5813420070823954486099815599922
182,1.5824515893312928697476037051026
183,1.5835550890077216870785494079824
184,1.5846525724571650555054864563461
185,1.5857441049454187009977257202190
186,1.5868297506818945029933629549096
187,1.5879095728423007286011406331779
188,1.5889836335907143548862930747924
189,1.5900519941010692102981179452837
190,1.5911147145780755862837156585453
191,1.5921718542775905416061702970131
192,1.5932234715264552815359927452762
193,1.5942696237418179157288346406453
194,1.5953103674499549355367580062404
195,1.5963457583046093430757463320500
196,1.5973758511048591239127914016765
197,1.5984006998125304386565865373501
198,1.5994203575691696953935373814137
199,1.6004348767125873367854016778035
200,1.6014443087929872819901531641941
201,1.6024487045886929997855295880570
202,1.6034481141214835890075055489029
203,1.6044425866715505209861849115816
204,1.6054321707920866588415100221988
205,1.6064169143235175189514801069604
206,1.6073968644073877932905610793921
207,1.6083720674999090032644755519248
208,1.6093425693851825064468108934379
209,1.6103084151881035990457439810433
210,1.6112696493869582097007315140519
211,1.6122263158257195435663106808419
212,1.6131784577260549038058522078844
213,1.6141261176990470683841137515799
214,1.6150693377566451978427615842367
215,1.6160081593228444802844457840335
216,1.6169426232446084680167456221977
217,1.6178727698025380648921635272111
218,1.6187986387212961367878672543987
219,1.6197202691797910181549852630648
220,1.6206376998211314227587830787265
221,1.6215509687623506608930965264463
222,1.6224601136039173604280628268760
223,1.6233651714390262525155459218655
224,1.6242661788626840812438213084525
225,1.6251631719805931937771991234684
226,1.6260561864178363489144791423378
227,1.6269452573273713869056833100517
228,1.6278304193983375707195013158042
229,1.6287117068641807508975571917546
230,1.6295891535106020402248800971828
231,1.6304627926833317874718922504016
232,1.6313326572957392591135469863855
233,1.6321987798362730145145694164766
234,1.6330611923757481206314318689907
235,1.6339199265744733773152635854880
236,1.6347750136892282519683055354251
237,1.6356264845800931436648250132467
238,1.6364743697171347077311820720637
239,1.6373186991869516763482155741960
240,1.6381595026990833285758029432374
241,1.6389968095922848911302547698668
242,1.6398306488406727258466478872008
243,1.6406610490597433345807323848892
244,1.6414880385122678697673899178970
245,1.6423116451140665237273375226513
246,1.6431318964396653152702063121323
247,1.6439488197278366553595648678945
248,1.6447624418870312723743588446368
249,1.6455727895006964654621336594928
250,1.6463798888324910700845257957370
251,1.6471837658313950351618701837579
252,1.6479844461367164097114804933470
253,1.6487819550830008105775298954210
254,1.6495763177048430275043927305626
255,1.6503675587416046449773269026977
256,1.6511557026420377655923296562147
257,1.6519407735688212256938199730033
258,1.6527227954030057473339206718165
259,1.6535017917483748293981749860463
260,1.6542777859357217635968625434970
261,1.6550508010270430883740205653679
262,1.6558208598196532054602136945417
263,1.6565879848502190089511409257840
264,1.6573521983987199770640770644548
265,1.6581135224923322510993905664619
266,1.6588719789092388686387575362233
267,1.6596275891823693635115163548666
268,1.6603803746030687655274552313247
269,1.6611303562247002691743333446816
270,1.6618775548661772947037127115973
271,1.6626219911154342248405724023182
272,1.6633636853328297959600115132759
273,1.6641026576544905861240719543050
274,1.6648389279955918082753057477373
275,1.6655725160535792834449940982332
276,1.6663034413113308716073449890655
277,1.6670317230402648434716706554758
278,1.6677573803033869471390864091366
279,1.6684804319582876720702277403860
280,1.6692008966600818032125305388951
281,1.6699187928642981540922764915354
282,1.6706341388297169751219682193989
283,1.6713469526211582495519368436200
284,1.6720572521122180335832116571503
285,1.6727650549879596478852431765913
286,1.6734703787475557452453264757393
287,1.6741732407068863136237726605624
288,1.6748736580010890163727367881666
289,1.6755716475870665176655076200306
290,1.6762672262459515256456736012290
291,1.6769604105855273942189614085725
292,1.6776512170426071683764820639377
293,1.6783396618853749788063002541136
294,1.6790257612156848226906288216894
295,1.6797095309713188178152000053693
296,1.6803909869282125155337984280139
297,1.6810701447026372042947998006427
298,1.6817470197533485204633384943234
299,1.6824216273836981692768405853236
300,1.6830939827437105065194921266982
301,1.6837641008321243923331335663881
302,1.6844319964984024100770082686801
303,1.6850976844447046233450897974264
304,1.6857611792278304486500258314792
305,1.6864224952611300722799335654892
306,1.6870816468163846745275000619968
307,1.6877386480256526432445474097892
308,1.6883935128830892551503571743880
309,1.6890462552467359141589689803933
310,1.6896968888402792818714749833301
311,1.6903454272547838951361082152499
312,1.6909918839503957838083878477889
313,1.6916362722580184814599584756284
314,1.6922786053809632333096609052753
315,1.6929188963965727210196522977620
316,1.6935571582578196799988093721233
317,1.6941934037948779478181262589379
318,1.6948276457166712949833268977315
319,1.6954598966123971796265846224487
320,1.6960901689530254273758586786587
321,1.6967184750927757553360867666761
322,1.6973448272705702546137420740543
323,1.6979692376114643454235485138164
324,1.6985917181280551819178374079582
325,1.6992122807218692687192952927293
326,1.6998309371847275263840127914429
327,1.7004476992000906265508844109966
328,1.7010625783443817859719448005028
329,1.7016755860882919942827621038980
330,1.7022867337980641071791951831007
331,1.7028960327367572435770872906253
332,1.7035034940654925479792192388044
333,1.7041091288446806965875137357776
334,1.7047129480352293311666248587956
335,1.7053149624997347355736261834344
336,1.7059151830036538129883825960567
337,1.7065136202164592360727060179545
338,1.7071102847127788288933568063359
339,1.7077051869735152450974971417740
340,1.7082983373869520336645723355164
341,1.7088897462498418057939446747822
342,1.7094794237684790000607422595010
343,1.7100673800597568836114498952881
344,1.7106536251522087830891619468105
345,1.7112381689870353646052312477075
346,1.7118210214191154375347838836385
347,1.7124021922180038474778286226439
348,1.7129816910689132700923046466860
349,1.7135595275736834507066409791824
350,1.7141357112517354320356014232646
351,1.7147102515410128575858786514047
352,1.7152831577989100330999879221887
353,1.7158544393031860304001313551214
354,1.7164241052528662480922492686621
355,1.7169921647691317943973607139718
356,1.7175586268961949018837561106028
357,1.7181235006021636131284109943415
358,1.7186867947798949812999304784136
359,1.7192485182478325307923959858287
360,1.7198086797508369158211303663282
361,1.7203672879610015218402921730862
362,1.7209243514784594913752295276194
363,1.7214798788321767698742600391402
364,1.7220338784807361955666450029049
365,1.7225863588131108696872562626702
366,1.7231373281494256847301702366545
367,1.7236867947417099027360226961523
368,1.7242347667746375723356908596681
369,1.7247812523662604170905269117647
370,1.7253262595687289082985553916252
371,1.7258697963690043755716785779794
372,1.7264118706895611116575862727534
373,1.7269524903890784382182340540902
374,1.7274916632631270410396078573840
375,1.7280293970448402662389859552450
376,1.7285656994055818336811600035378
377,1.7291005779556017568106749308156
378,1.7296340402446836363075099317895
379,1.7301660937627851673647216787243
380,1.7306967459406686173491806710009
381,1.7312260041505241492776120256627
382,1.7317538757065831092746085383027
383,1.7322803678657259526707050410482
384,1.7328054878280797724376916260324
385,1.7333292427376090512125024810182
386,1.7338516396827002955580403585573
387,1.7343726856967363017931814284168
388,1.7348923877586639901853774997735
389,1.7354107527935564821856254137651
390,1.7359277876731666098061618853891
391,1.7364434992164721740740383850020
392,1.7369578941902165609311954967747
393,1.7374709793094421880591404409742
394,1.7379827612380153637177194650535
395,1.7384932465891454144622159305351
396,1.7390024419258977325978546324552
397,1.7395103537617003732713374257019
398,1.7400169885608442093247514899243
399,1.7405223527389752096944740957607
400,1.7410264526635831413037543179158
401,1.7415292946544827433594669551114
402,1.7420308849842881192608295736529
403,1.7425312298788831668503252575252
404,1.7430303355178859400883825699132
405,1.7435282080351044075867488469393
406,1.7440248535189897170275127194570
407,1.7445202780130840821775806633928
408,1.7450144875164607956842748963009
409,1.7455074879841592287203373245301
410,1.7459992853276173319472178070175
411,1.7464898854150958978062173794480
412,1.7469792940720981667177801444897
413,1.7474675170817858562400182351572
414,1.7479545601853880370232122303085
415,1.7484404290826071395143999548128
416,1.7489251294320185210365111921372
417,1.7494086668514664417207783052882
418,1.7498910469184536125201921174856
419,1.7503722751705285938080019512059
420,1.7508523571056660264745970654655
421,1.7513312981826436476994092902370
422,1.7518091038214153729915581400835
423,1.7522857794034782806319938405734
424,1.7527613302722371122340757462628
425,1.7532357617333626687743555994652
426,1.7537090790551477089255045218246
427,1.7541812874688578343133543823550
428,1.7546523921690773753771808650592
429,1.7551223983140541902123524586479
430,1.7555913110260362384922601922313
431,1.7560591353916074341150684413402
432,1.7565258764620199260798092469431
433,1.7569915392535181454799694179781
434,1.7574561287476657165419180954726
435,1.7579196498916630553722025440025
436,1.7583821075986635573945126062775
437,1.7588435067480865348348242546667
438,1.7593038521859258863088548762530
439,1.7597631487250551798048817181603
440,1.7602214011455302202644145352983
441,1.7606786141948862616022056399641
442,1.7611347925884334267997963686303
443,1.7615899410095499837565734168097
444,1.7620440641099680962564812789243
445,1.7624971665100613806972660968637
446,1.7629492527991252929178873548317
447,1.7634003275356575142806261499402
448,1.7638503952476315551949891955486
449,1.7642994604327714165753119168586
450,1.7647475275588194616590418224604
451,1.7651946010638050012656729705611
452,1.7656406853563064338307136187593
453,1.7660857848157126832717046073568
454,1.7665299037924803236204651439991
455,1.7669730466083900142788903288917
456,1.7674152175567975428820672977609
457,1.7678564209028841714605694512802
458,1.7682966608839026817826650036426
459,1.7687359417094216337854437611262
460,1.7691742675615674794221165845717
461,1.7696116425952623816337266468774
462,1.7700480709384609514798271288839
463,1.7704835566923845071827089252466
464,1.7709181039317510159739557037924
465,1.7713517167050046874626957767487
466,1.7717843990345423492052242122933
467,1.7722161549169358849753483404647
468,1.7726469883231557513594348410943
469,1.7730769031987880493550384692349
470,1.7735059034642526754976603675815
471,1.7739339930150168196034258054901
472,1.7743611757218081067233358961268
473,1.7747874554308227341922574918336
474,1.7752128359639361077495546589053
475,1.7756373211189048994669089069118
476,1.7760609146695730412710721725604
477,1.7764836203660719870387327100530
478,1.7769054419350199192331560280411
479,1.7773263830797187894466243218195
480,1.7777464474803495874106443827785
481,1.7781656387941643893278415699418
482,1.7785839606556787542924367257162
483,1.7790014166768598487743850456634
484,1.7794180104473131189010607276238
485,1.7798337455344689873894965267985
486,1.7802486254837641599004743327196
487,1.7806626538188243895728323313532
488,1.7810758340416432962004796640960
489,1.7814881696327604681274197307261
490,1.7818996640514367098809367329074
491,1.7823103207358285697163288821342
492,1.7827201431031607351507189526254
493,1.7831291345498962713839140324980
494,1.7835372984519057965311110439837
495,1.7839446381646337860481998307819
496,1.7843511570232652506537333804515
497,1.7847568583428884731473269701201
498,1.7851617454186577492574208989793
499,1.7855658215259536297153242890608
500,1.785969089920542793900118008427
501,1.786371553838733300939661877025
502,1.786773216497532673286999210199
503,1.787174081094800280737658017041
504,1.787574150809401868559161235470
505,1.787973428801359077029380296786
506,1.788371918211999682299360313806
507,1.788769622164106406430614330634
508,1.789166543762063936388341818568
509,1.789562686092002382697678000628
510,1.789958052221943230812903686611
511,1.790352645201941016090138147981
512,1.790746468064224622368752465988
513,1.791139523823336819709011671751
514,1.791531815476272717560318085029
515,1.791923346002617507467724444109
516,1.792314118364681705519061714306
517,1.792704135507634969133779413756
518,1.793093400359640273445656893718
519,1.793481915831985229088562468342
520,1.793869684819213398256324667534
521,1.794256710199252404130748517181
522,1.794642994833543109750213235842
523,1.795028541567166303342334319507
