Eigenstate,Potential Energy
1,0.500000000026825036693552620271571673
2,0.64623093782621439891024909446986066
3,0.73633761021931658055979957029569109
4,0.79966527888555090799273042274609805
5,0.8480465771414147063547389721536660
6,0.8870659997418270718575719323633871
7,0.9197208281250767148818486128569819
8,0.9477838486681757648822126452454131
9,0.9723835603774454765331981003511155
10,0.9942802174014867109094849521232727
11,1.0140093898813597249739624953760548
12,1.0319621731217110509298061276974038
13,1.0484326971883627073170239977743136
14,1.0636476597644722380823453472719795
15,1.0777854419647166986951369832401356
16,1.090988913205737223546180354777913
17,1.103374264667643136815448039835464
18,1.115037260300211352168326857459616
19,1.126057759926864014113161559021587
20,1.136503056878605002725412306688196
21,1.146430384075717186030651279437703
22,1.155888825186502626487570610929008
23,1.164920792563807303417779578433268
24,1.173563184645443331784649683515808
25,1.181848302750115405948459731253919
26,1.189804584885008595693374913301656
27,1.197457198708364221292566776636820
28,1.204828524888519725680739726303918
29,1.211938554305860640580671124699559
30,1.218805216894645174323042384890097
31,1.225444655775723449152615139144950
32,1.231871457253273831186182043645631
33,1.238098844939030992135110566839073
34,1.244138844516934075816295368600123
35,1.250002424321928276837877781934505
36,1.255699615873174260354896230389976
37,1.261239617697835303326742402789100
38,1.266630885151193294614281605574066
39,1.271881208440996081777100147576270
40,1.276997780668117868920532887443613
41,1.281987257378864096250187506245920
42,1.286855808869259630510824295786924
43,1.291609166275172750590923769259356
44,1.296252662314033397087897656493106
45,1.300791267406334585647112822661852
46,1.305229621791969601307549891324426
47,1.309572064162980978766733028927772
48,1.313822657256710909239161820831058
49,1.317985210788680170694231645752171
50,1.32206330205039996461344042687401
51,1.32606029445185407994016889306310
52,1.32997935425004359060099590401203
53,1.33382346567253617443580154092260
54,1.33759544461740100992145412874398
55,1.34129795108743471456513252859834
56,1.34493350049650921872086116140081
57,1.34850447396867350346608663199410
58,1.35201312773584394488619810482981
59,1.35546160172716405984137073517849
60,1.35885192743208994058937256553674
61,1.36218603510969343813462238901161
62,1.36546576040837414906143710402189
63,1.36869285045292937158975928370947
64,1.37186896944961871667040788604816
65,1.37499570385432521996478134332577
66,1.37807456714406746150044805187925
67,1.38110700422785490846878878616264
68,1.38409439552912253582277431073779
69,1.38703806076866810860653468109992
70,1.38993926247408724168468329490644
71,1.39279920923910264880858850337284
72,1.39561905875388575057707952563251
73,1.39839992062541580444591393606132
74,1.40114285900510287138765184768760
75,1.40384889503926983270077539118087
76,1.40651900915663911371171610014504
77,1.40915414320566737269549453236573
78,1.41175520245340561516052653668316
79,1.41432305745651537365099849950215
80,1.41685854581413346757579552037152
81,1.41936247381142851609642279342940
82,1.42183561796193092655287011415433
83,1.42427872645602934711672465612951
84,1.42669252052240228064472247836153
85,1.42907769570859428053228588075230
86,1.43143492308643028397723218656658
87,1.43376485038750416726404035072536
88,1.43606810307355422994330207307673
89,1.43834528534615481261952991582198
90,1.44059698109981003633118932970882
91,1.44282375482221419945616566169581
92,1.44502615244515507053668848228916
93,1.44720470214927406036216801650095
94,1.44935991512565432791022929416757
95,1.45149228629698672071727578461714
96,1.45360229500086162813342132354522
97,1.45569040563755048380709454187612
98,1.45775706828446777944981565775518
99,1.45980271927935097974262796034643
100,1.46182778177404938782948491268911
101,1.46383266626068370668849429608738
102,1.46581777107181246695079912711106
103,1.46778348285613357812397625412238
104,1.46973017703114199546651386518456
105,1.47165821821407142100287112086393
106,1.47356796063235719292506058782696
107,1.47545974851477943567120113814081
108,1.47733391646436630341709923877431
109,1.47919078981406855618280500458183
110,1.48103068496615428763097313077192
111,1.48285390971620676243536872481017
112,1.48466076356255888746438095719994
113,1.48645153800194230523032120313506
114,1.48822651681208034029895202366849
115,1.48998597632191358085112415271732
116,1.49173018567009854594017023596299
117,1.49345940705238817598194072398743
118,1.49517389595846185290882185738482
119,1.49687390139873894270273230886267
120,1.49855966612168401078716783116289
121,1.50023142682207359351410598139742
122,1.50188941434067549584880710798114
123,1.50353385385575939242354206232803
124,1.50516496506683982932263633863179
125,1.50678296237102315769810838983250
126,1.50838805503231473301761054875649
127,1.50998044734422213586000646174866
128,1.51156033878596758298401765926251
129,1.51312792417261062415728041560181
130,1.51468339379936383836586192801956
131,1.51622693358036883890626275155596
132,1.51775872518218491966110108815783
133,1.51927894615223089327568845053732
134,1.52078777004240939599396713706667
135,1.52228536652812482556966224408674
136,1.52377190152290239113820689412347
137,1.52524753728880244599142773303120
138,1.52671243254281066220634507803304
139,1.52816674255938250017389623968875
140,1.52961061926930498010497412606872
141,1.53104421135503420510141526159241
142,1.53246766434265901211239693139108
143,1.53388112069063247692732998700885
144,1.53528471987540581971961043512193
145,1.53667859847409506989614574051254
146,1.53806289024430298025700109475530
147,1.53943772620121047750325658846564
148,1.54080323469205297809794277887928
149,1.54215954146808337041065760267911
150,1.54350676975412530399923623313970
151,1.54484504031581270025807909003934
152,1.54617447152460578357809450572170
153,1.54749517942067258268662059969439
154,1.54880727777371980138355586181280
155,1.55011087814185129464027800689268
156,1.55140608992853201639790126816083
157,1.55269302043772848564118961293113
158,1.55397177492729758882216941875068
159,1.5552424566606873914394572867203
160,1.5565051669570162962834932654049
161,1.5577600052395890444392587218390
162,1.5590070690829090201184189696138
163,1.5602464542582417125906932834808
164,1.5614782547777839717800663802488
165,1.5627025629374876577140592993472
166,1.5639194693585881993852266208625
167,1.5651290630278852953149747414006
168,1.5663314313368184447037927479434
169,1.5675266601193823712288777503871
170,1.5687148336889220825756309737291
171,1.5698960348738477601340714428443
172,1.5710703450523073454888569073776
173,1.5722378441858522260040022620451
174,1.5733986108521318629868994611205
175,1.5745527222766513473350937425659
176,1.5757002543636215889891052882744
177,1.5768412817259354006992310419275
178,1.5779758777142986304729870181958
179,1.5791041144455427876193842263682
180,1.5802260628301501087593690952962
181,1.5813417925990137123589985964986
182,1.5824513723294605371409916479464
183,1.5835548694705601136189555150357
184,1.5846523503677434102605456047433
185,1.5857438802867535623731571557301
186,1.5868295234369494523013702508353
187,1.5879093429939859414038345526474
188,1.5889834011218861900936898763406
189,1.5900517589945297970000800036143
190,1.5911144768165724082950287859487
191,1.5921716138438160197038478907547
192,1.5932232284030463533675962469431
193,1.5942693779113556133705711989896
194,1.5953101188949639606798282600376
195,1.5963455070075576398192960720622
196,1.5973755970481574491416437894807
197,1.5984004429785319299817053942371
198,1.5994200979401694366330294203906
199,1.6004346142708219209636680618143
200,1.6014440435206343718325986462027
201,1.6024484364678708856860757676218
202,1.6034478431342507444459461104662
203,1.6044423127999051553722141346746
204,1.6054318940179662677621109346147
205,1.6064166346287984317980595151298
206,1.6073965817738847182421496468499
207,1.6083717819093745696030084773462
208,1.6093422808193068041803401813034
209,1.6103081236285137158152183360193
210,1.6112693548152177649457888829236
211,1.6122260182233282199252593221176
212,1.6131781570744479757248864731954
213,1.6141258139795949279105367663119
214,1.6150690309506528775767587742672
215,1.6160078494115511734638167266520
216,1.6169423102091870457086593701293
217,1.6178724536240945902658451614415
218,1.6187983193808693764419460660772
219,1.6197199466583519504728415141836
220,1.6206373740995827432651686512274
221,1.6215506398215262845850134113048
222,1.6224597814245819210525561341369
223,1.6233648360018745987670065276869
224,1.6242658401483407698529414458055
225,1.6251628299696119794636559282780
226,1.6260558410906996711750368018180
227,1.6269449086644898536092688790690
228,1.6278300673800494384804585143784
229,1.6287113514707514021980971079765
230,1.6295887947222234572574189628665
231,1.6304624304801220226717844804224
232,1.6313322916577419023523479756508
233,1.6321984107434566569238158054938
234,1.6330608198080058150265672180736
235,1.6339195505116220951891049394316
236,1.6347746341110083370231040149809
237,1.6356261014661677618518209565577
238,1.6364739830470892937661282881901
239,1.6373183089402933766711552257906
240,1.6381591088552404407230113248626
241,1.6389964121306062994860604471993
242,1.6398302477404273337424888248477
243,1.6406606443001194927084651150573
244,1.6414876300723728008736957829972
245,1.6423112329729257435556243613710
246,1.6431314805762220497161385355822
247,1.6439484001209512538061134777529
248,1.6447620185154806171718196235581
249,1.6455723623431733775183142819542
250,1.6463794578676037105300113159468
251,1.6471833310376663030548538740277
252,1.6479840074925833357463765590604
253,1.6487815125668139467612536719822
254,1.6495758712948658327638215839206
255,1.6503671084160128666611508924420
256,1.6511552483789188168300549663985
257,1.6519403153461735585745139728747
258,1.6527223331987382218667254372270
259,1.6535013255403060782164630789641
260,1.6542773157015795523673411877295
261,1.6550503267444636718718974103667
262,1.6558203814661806792711167394642
263,1.6565875024033046567599396109894
264,1.6573517118357216134906219592134
265,1.6581130317905135600407468590808
266,1.6588714840457687370769552864457
267,1.6596270901343212107456444196407
268,1.6603798713474198677883999326280
269,1.6611298487383310795800755543662
270,1.6618770431258707585128149596002
271,1.6626214750978750899609421905857
272,1.6633631650146039186695782349012
273,1.6641021330120842319597435738483
274,1.6648383990053909480460447029723
275,1.6655719826918688843244328397991
276,1.6663029035542941832609744904517
277,1.6670311808639826791731075514956
278,1.6677568336838369598294866976458
279,1.6684798808713436253146544801755
280,1.6692003410815128370062931550861
281,1.6699182327697680454700988016168
282,1.6706335741947833935222760433018
283,1.6713463834212720068878971906642
284,1.6720566783227223289720571696997
285,1.6727644765840893069865891324975
286,1.6734697957044364541588412968482
287,1.6741726529995338472960768618320
288,1.6748730656044084614629788842778
289,1.6755710504758514898182259764917
290,1.6762666243948833811195131088921
291,1.6769598039691744358189686302537
292,1.6776506056354238456372555082085
293,1.6783390456617010823727938569429
294,1.6790251401497446728427967222410
295,1.6797089050372204470822383793778
296,1.6803903560999468453430706429782
297,1.6810695089540772155999957551579
298,1.6817463790582484182959599181921
299,1.6824209817156925411643857597826
300,1.6830933320763134747132599167271
301,1.6837634451387287597879287491402
302,1.6844313357522788001244508581556
303,1.6850970186190006130016526701626
304,1.6857605082955696955002368847785
305,1.6864218191952114348747557014293
306,1.6870809655895813262369518512491
307,1.6877379616106111795035548464159
308,1.6883928212523287940354882775784
309,1.6890455583726471902336834360058
310,1.6896961866951237332364880166648
311,1.6903447198106927436209963591860
312,1.6909911711793691082399284702630
313,1.6916355541319242839417298486303
314,1.6922778818715364984471543664928
315,1.6929181674754144680242385697117
316,1.6935564238963960076032030636419
317,1.6941926639645190719353412615623
318,1.6948269003885705790403703275743
319,1.6954591457576101575034907556764
320,1.6960894125424688188797766660294
321,1.6967177130972264741395865349870
322,1.6973440596606644085856794545373
323,1.6979684643576962292800105218192
324,1.6985909392007762621199721116195
325,1.6992114960912871605439936449335
326,1.6998301468209049630929543622972
327,1.7004469030729444205820835522446
328,1.7010617764236817820776575362378
329,1.7016747783436600145365417614853
330,1.7022859201989728877739961137061
331,1.7028952132525293633357559255815
332,1.7035026686652993484977057014219
333,1.7041082974975411939301788950255
334,1.7047121107100091190322639337384
335,1.7053141191651448798501407154856
336,1.7059143336282497376127184089687
337,1.7065127647686396001123402900599
338,1.7071094231607843947638004995495
339,1.7077043192854277378308104099336
340,1.7082974635306929911412540079892
341,1.7088888661931714198510245493447
342,1.7094785374789949483871485224312
343,1.7100664875048931523410748949839
344,1.7106527262992344800008832444215
345,1.7112372638030535228384023643583
346,1.7118201098710618097276264586818
347,1.7124012742726456902348210945320
348,1.7129807666928481186861082212033
349,1.7135585967333378839189381785498
350,1.7141347739133638270398922060328
351,1.7147093076706961347744084464184
352,1.7152822073625543907561428184290
353,1.7158534822665216691160894048814
354,1.7164231415814460848307824215129
355,1.7169911944283301660956980826083
356,1.7175576498512062584960938735238
357,1.7181225168180012000025082000188
358,1.7186858042213895107821486780824
359,1.7192475208796308429543179620660
360,1.7198076755374006281997670248077
361,1.7203662768666056680826598552455
362,1.7209233334671911486766508670467
363,1.7214788538679336750987183623611
364,1.7220328465272253499363464652162
365,1.7225853198338471319270317054321
366,1.7231362821077303525511845892497
367,1.7236857416007092825420532802660
368,1.7242337064972615370336784536123
369,1.7247801849152409518859517150199
370,1.7253251849065986443548518408833
371,1.7258687144580951114111518101850
372,1.7264107814920023221807861751244
373,1.7269513938667957712160443663898
374,1.7274905593778408010722931694949
375,1.7280282857580638857535942022799
376,1.7285645806786203312385366978223
377,1.7290994517495501822907545453039
378,1.7296329065204255029608686845085
379,1.7301649524809908705762071083273
380,1.7306955970617938399783870060630
381,1.7312248476348082534392370153486
382,1.7317527115140475144199315615956
383,1.7322791959561724998302067107816
384,1.7328043081610890744827503405293
385,1.7333280552725388289930000708066
386,1.7338504443786836997705731970398
387,1.7343714825126802204332270148210
388,1.7348911766532473414345458048631
389,1.7354095337252284925842597951549
390,1.7359265606001450775586048450501
391,1.7364422640967417173334755581341
392,1.7369566509815268509077741860092
393,1.7374697279693061667945026898465
394,1.7379815017237074463662920257887
395,1.7384919788576996759181346399478
396,1.7390011659341060783045446515294
397,1.7395090694661106940485581077988
398,1.7400156959177585200463652331085
399,1.7405210517044477716477955964483
400,1.7410251431934185680596016809139
401,1.7415279767042340899798778715706
402,1.7420295585092549546693412332302
403,1.7425298948341096291879055663661
404,1.7430289918581587748751600925871
405,1.7435268557149509885088122144429
406,1.7440234924926760491645640879403
407,1.7445189082346127874860509921099
408,1.7450131089395690805478525180612
409,1.7455061005623168333770464377309
410,1.7459978890140244616010677339662
411,1.7464884801626811352280422582751
412,1.7469778798335163661381524842911
413,1.7474660938094160183344694058911
414,1.7479531278313311647875737018979
415,1.7484389875986840748256955667090
416,1.7489236787697677616923062853731
417,1.7494072069621419387471485047517
418,1.7498895777530225475364263100992
419,1.7503707966796691362329720688177
420,1.7508508692397650703576287070169
421,1.7513298008917945279549493853151
422,1.7518075970554155608156107070058
423,1.7522842631118270578740677172283
424,1.7527598044041332244967608336707
425,1.7532342262377019570088003750518
426,1.7537075338805207192890621121767
427,1.7541797325635474060525213307235
428,1.7546508274810562064956012107433
429,1.7551208237909823806811348335767
430,1.7555897266152588107566461491269
431,1.7560575410401518306482816379362
432,1.7565242721165934837321640047463
433,1.7569899248605055463678259764738
434,1.7574545042531264152177711089732
435,1.7579180152413286820145973346816
436,1.7583804627379352967521604251243
437,1.7588418516220324806568898572618
438,1.7593021867392783709892396938677
439,1.7597614729022080789657986700378
440,1.7602197148905362319999402556131
441,1.7606769174514541600996371743033
442,1.7611330852999252900531095860808
443,1.7615882231189783950822941586486
444,1.7620423355599933193187185217496
445,1.7624954272429885077448992726148
446,1.7629475027569013659332820425975
447,1.7633985666598686187347707057740
448,1.7638486234794998861009399176241
449,1.7642976777131523165272673975271
450,1.7647457338281984305400440102005
451,1.7651927962622946773038142134050
452,1.7656388694236435456786561523103
453,1.7660839576912549727805106273041
454,1.7665280654152034389743626290709
455,1.7669711969168843731533666307701
456,1.7674133564892651652832776247687
457,1.7678545483971354818992529468323
458,1.7682947768773532804316717346104
459,1.7687340461390890362652964976379
460,1.7691723603640678248537910890849
461,1.7696097237068071085941895797228
462,1.7700461402948534414899224661834
463,1.7704816142290166953527770493467
464,1.7709161495835999684273856850523
465,1.7713497504066291451527749463189
466,1.7717824207200792377351551996194
467,1.7722141645200967900267197803504
468,1.7726449857772233593284811460767
469,1.7730748884366125527913096692647
470,1.7735038764182481429336923722227
471,1.7739319536171575293592427754581
472,1.7743591239036248442632477751100
473,1.7747853911233990526065285524189
474,1.7752107590979045509268213477853
475,1.7756352316244431875183291686606
476,1.7760588124764002177608407593156
477,1.7764815054034445275691641398441
478,1.7769033141317278009273639434112
479,1.7773242423640815208647284080354
480,1.7777442937802121984296846055580
481,1.7781634720368933805090734126188
482,1.7785817807681580052525632126942
483,1.7789992235854864850720253784906
484,1.7794158040779933369413527243088
485,1.7798315258126138368445032132156
486,1.7802463923342852831351756910520
487,1.7806604071661297175596318521399
488,1.7810735738096327003985086817591
489,1.7814858957448213677950104988074
490,1.7818973764304396342826127346442
491,1.7823080193041226746780384874349
492,1.7827178277825692734103405481044
493,1.7831268052617120161743530220090
494,1.7835349551168864178276952139205
495,1.7839422807029971789029216418797
496,1.7843487853546848150307519151533
497,1.7847544723864883446666674612930
498,1.7851593450930079802446726612039
499,1.7855634067490653199470725156603
500,1.785966660609863170426781867796
501,1.786369109911140746357157691202
502,1.786770757869331701821510916066
503,1.787171607681716461497417030211
504,1.787571662526576695299080387598
505,1.787970925563344783764093681231
506,1.788369399932754004091455830235
507,1.788767088756987284670604028191
508,1.789163995139824167874068387226
509,1.789560122166784211809960444442
510,1.789955472905272884074458045802
511,1.790350050404723178384907416732
512,1.790743857696736854088193620589
513,1.791136897795223914080830629158
514,1.791529173696540997404933764110
515,1.791920688379629060616699806690
516,1.792311444806148558118115376023
517,1.792701445920613196042952732711
518,1.793090694650524044935771511773
519,1.793479193906500793023645480795
520,1.793866946582412996937523312234
521,1.794253955555508124967606829955
522,1.794640223686540668910652849061
523,1.795025753819898761521725476385
