Eigenstate,Potential Energy
1,0.500000000073334413088115130068285397
2,0.64623093812980417810395826267145648
3,0.73633761111109074480931018099755611
4,0.79966528074302518008764764728203724
5,0.8480465803589634610179630369283091
6,0.8870660047207414143919832134263231
7,0.9197208352699031314925757460536657
8,0.9477838583851908371157848336776773
9,0.9723835730739481367886015992443570
10,0.9942802334854404267830842915935882
11,1.0140094097611994159231260598816634
12,1.0319621972062339518096058820832180
13,1.0484327258866649346972536285143585
14,1.0636476934859116603930427107163304
15,1.0777854811188916768087767042753476
16,1.090988958202475322256824378995608
17,1.103374315916996324167593046197350
18,1.115037318212455551644046810236615
19,1.126057824912501657288115662385906
20,1.136503129348369700562201784095199
21,1.146430464440579928848048711084721
22,1.155888913857679108769615382660499
23,1.164920889952766091305916536595065
24,1.173563291163914672445178278938441
25,1.181848418810100533507848288171141
26,1.189804710898789427003311550841332
27,1.197457335088513362044851401229292
28,1.204828672047910726955615730438173
29,1.211938712657678460153507286513171
30,1.218805386852396807557597734670418
31,1.225444837753248702149842383240542
32,1.231871651664756214776507618153067
33,1.238099052199008719817320352894959
34,1.244139065040311152224020649829018
35,1.250002658523985666018098292931521
36,1.255699864169581125262137523710025
37,1.261239880504660309611481362878591
38,1.266631162884915973117516247548448
39,1.271881501518518245212329001699034
40,1.276998089506775079087686926434773
41,1.281987582396437178827323795109390
42,1.286856150483986235042701120722593
43,1.291609524905758953764895188991776
44,1.296253038379665347777116364555965
45,1.300791661326690190524818127768610
46,1.305230033987230250106713115672179
47,1.309572495053843308486270003063546
48,1.313823107264398606789448508619589
49,1.317985680334955813636840239850520
50,1.32206379155757689978804639401732
51,1.32606080434280833988968453950984
52,1.32997988494822584780727389751454
53,1.33382401760198373346559230200680
54,1.33759601820274983765804600352138
55,1.34129854675393150876683256625558
56,1.34493411867002351520496930939480
57,1.34850511507570982226732570375100
58,1.35201379220355397578313316113098
59,1.35546228998335888768336194072836
60,1.35885263990525231089165313713330
61,1.36218677222899006344012237618330
62,1.36546652260366805659598518880278
63,1.36869363815479229276230220166170
64,1.37186978308934351899262058756697
65,1.37499654386393838198520577011510
66,1.37807543395634159136706341624232
67,1.38110789827632130675126214053262
68,1.38409531724808380324158119272072
69,1.38703901059321079933107689433566
70,1.38994024084009456287602199453638
71,1.39280021658326720709567426240347
72,1.39562009551372234616709758039198
73,1.39840098723927427358116249285761
74,1.40114395591218097787196699632130
75,1.40385002267962620922910111635020
76,1.40652016797120625374612235045192
77,1.40915533363626467364061691234006
78,1.41175642494275247360062527230803
79,1.41432431244824433341970900530574
80,1.41685983375280342143825982370992
81,1.41936379514253796183210510343769
82,1.42183697313193127823556568255968
83,1.42428011591233830239640175793042
84,1.42669394471341724484391744782081
85,1.42907915508370584837769213044893
86,1.43143641809603577979485148896992
87,1.43376638148302124447423053904894
88,1.43606967070743453069965737844944
89,1.43834688997189768844324345823303
90,1.44059862317197633060025000305530
91,1.44282543479644009261645551448471
92,1.44502787077816598890963504340487
93,1.44720645929889864943140408968548
94,1.44936171155083849097731321301623
95,1.45149412245780772382446132613163
96,1.45360417135854227215895275833520
97,1.45569232265447334464670290542315
98,1.45775902642418951720565713820810
99,1.45980471900661671784908635686767
100,1.46182982355480716305309160846520
101,1.46383475056209899094748886456913
102,1.46581989836228276190783661171736
103,1.46778565360530308351367557782275
104,1.46973239170991635212821440708459
105,1.47166047729463252959692469320644
106,1.47357026458817810931979787270398
107,1.47546209782063934399603580750582
108,1.47733631159636556778623724853651
109,1.47919323124964385210250297435124
110,1.48103317318409381411246828884629
111,1.48285644519666553584428155825057
112,1.48466334678707411814682931134742
113,1.48645416945344885796499623806534
114,1.48822919697492627963380327014749
115,1.48998870568187580239280710610216
116,1.49173296471439849467390260216623
117,1.49346223626970765270927102091434
118,1.49517677583895890990040518850514
119,1.49687683243406386967338269495445
120,1.49856264880499541231048853275251
121,1.50023446164805455900420551588981
122,1.50189250180554986324697718764091
123,1.50353699445730810673825507630347
124,1.50516815930441739718193716378692
125,1.50678621074557419908414112793438
126,1.50839135804639063136411795215232
127,1.50998380550199778770453834172679
128,1.51156375259325824837798195844576
129,1.51313139413688887904828349748614
130,1.51468692042977663017826929320386
131,1.51623051738775464655765030911102
132,1.51776236667909101926436326638590
133,1.51928264585293073078801833912142
134,1.52079152846292006808671761284970
135,1.52228918418622467000521802606741
136,1.52377577893814868795234191668730
137,1.52525147498254923079260288107361
138,1.52671643103822665291610176800581
139,1.52817080238146913854568076692019
140,1.52961474094491458937186542733477
141,1.53104839541288826511658766544594
142,1.53247191131336655335993279787584
143,1.53388543110670859479460547280459
144,1.53528909427129031043659819641673
145,1.53668303738617118956105472222139
146,1.53806739421091632838204912877521
147,1.53944229576268800652903672021461
148,1.54080787039072213033945705385722
149,1.54216424384829134391338824220606
150,1.54351153936225844879810364614030
151,1.54484987770031604654861566056219
152,1.54617937723600270332372086098918
153,1.54750015401158458620238761425868
154,1.54881232179888647045247172444858
155,1.55011599215815035373466815286487
156,1.55141127449499954359503633773052
157,1.55269827611557926483851114138256
158,1.55397710227994560487511387784474
159,1.5552478562537664698614481869328
160,1.5565106393584008891656191340683
161,1.5577655510194151642645494500187
162,1.5590126888135953231637360412098
163,1.5602521485145107336269686607990
164,1.5614840241366835118008204772632
165,1.5627084079784123264403081152007
166,1.5639253906633011143137652148598
167,1.5651350611805399390965617397992
168,1.5663375069239806826571696299695
169,1.5675328137300526308160440479566
170,1.5687210659145576966842952262126
171,1.5699023463083854760330865980146
172,1.5710767362921860013433514743003
173,1.5722443158300355968576103318630
174,1.5734051635021316781397815229531
175,1.5745593565365504810680283755977
176,1.5757069708400974266054668728817
177,1.5768480810282833818790143356904
178,1.5779827604544559719553345085268
179,1.5791110812381123872526961370435
180,1.5802331142924246329814641414354
181,1.5813489293509998691927940465665
182,1.5824585949939035368150052068728
183,1.5835621786729683189461221642136
184,1.5846597467364131789329809987668
185,1.5857513644527942833556303536139
186,1.5868370960343087785305457751017
187,1.5879170046594752210267603174914
188,1.5889911524952060985042728535774
189,1.5900596007182961719581758234830
190,1.5911224095363422904401802950939
191,1.5921796382081139008015718254604
192,1.5932313450633906346546684720443
193,1.5942775875222852763919964112424
194,1.5953184221140654530396786828725
195,1.5963539044954919782951159359546
196,1.5973840894686875426414219776483
197,1.5984090309985501248519987567319
198,1.5994287822297252868557213894247
199,1.6004433955031501858101314610810
200,1.6014529223721832435738000392208
201,1.6024574136183304499884645854641
202,1.6034569192665816761148374807329
203,1.6044514886003676521355526675758
204,1.6054411701761492248208900158635
205,1.6064260118376488599015706730921
206,1.6074060607297374080803970541766
207,1.6083813633119820053423627062967
208,1.6093519653718693290021591401432
209,1.6103179120377099523532326828790
210,1.6112792477912352935521485333097
211,1.6122360164798945177319793105313
212,1.6131882613288616195032049901453
213,1.6141360249527570637681938507185
214,1.6150793493670989605702166573109
215,1.6160182759994829802406781493049
216,1.6169528457005049633343247252416
217,1.6178830987544301844271519065346
218,1.6188090748896182422606659472962
219,1.6197308132887068492024962288308
220,1.6206483525985670281845273735069
221,1.6215617309400276194446084442556
222,1.6224709859173862944713945184338
223,1.6233761546277006380202716204635
224,1.6242772736698743575346220746722
225,1.6251743791535411765521385397463
226,1.6260675067077499500747460372765
227,1.6269566914894596447857422788132
228,1.6278419681918459943541235570422
229,1.6287233710524269820071714502780
230,1.6296009338610118366486390287936
231,1.6304746899674753318257470203792
232,1.6313446722893677964991644095162
233,1.6322109133193558231543228414399
234,1.6330734451325098193549317591569
235,1.6339322993934315738736244753394
236,1.6347875073632315362044009251538
237,1.6356390999063594296198634825828
238,1.6364871074972899288213335570386
239,1.6373315602270688377989735507523
240,1.6381724878097219213574942027437
241,1.6390099195885306716925274429648
242,1.6398438845421778660071536190416
243,1.6406744112907669459811803742249
244,1.6415015281017169073672332977543
245,1.6423252628955370728658278737112
246,1.6431456432514842668873649236097
247,1.6439626964131037740272787369491
248,1.6447764492936616618515910291090
249,1.6455869284814634365508880433007
250,1.6463941602450694156270604849509
251,1.6471981705384047170853809242485
252,1.6479989850057666630918099365242
253,1.6487966289867346697603171397549
254,1.6495911275209822793917092303600
255,1.6503825053529952146547955772707
256,1.6511707869366955395441670275925
257,1.6519559964399783179233435132807
258,1.6527381577491572137795015854431
259,1.6535172944733258361092990740898
260,1.6542934299486352142088806744319
261,1.6550665872424877164964759017541
262,1.6558367891576521376712207620425
263,1.6566040582362988041681500928092
264,1.6573684167639601481413214188533
265,1.6581298867734152745836747433668
266,1.6588884900485006886971656259368
267,1.6596442481278503961279660678344
268,1.6603971823085654091506783283967
269,1.6611473136498169280858726464183
270,1.6618946629763789214619593672945
271,1.6626392508820993882464062600948
272,1.6633810977333042810803696400989
273,1.6641202236721415330009138166115
274,1.6648566486198623960424054720629
275,1.6655903922800439666686250531550
276,1.6663214741417511757647934350578
277,1.6670499134826457265790216285938
278,1.6677757293720337346394114351801
279,1.6684989406738635721958342758382
280,1.6692195660496660101366834439787
281,1.6699376239614445462918558561117
282,1.6706531326745134164784185620364
283,1.6713661102602865008260497926525
284,1.6720765745990142820103555909877
285,1.6727845433824756627487163950182
286,1.6734900341166206673998010733088
287,1.6741930641241690870563400662189
288,1.6748936505471614700071640326665
289,1.6755918103494671057341964038724
290,1.6762875603192497350762337791329
291,1.6769809170713888276056338659925
292,1.6776718970498593112327401875832
293,1.6783605165300736599222561952212
294,1.6790467916211813765500889699031
295,1.6797307382683279581580471701855
296,1.6804123722548809292853304481553
297,1.6810917092046128752195846837004
298,1.6817687645838507920404850010389
299,1.6824435537035885564357987634648
300,1.6831160917215642660182986725049
301,1.6837863936443028617086233941861
302,1.6844544743291261252449654353317
303,1.6851203484861272250794604381915
304,1.6857840306801133883256827166412
305,1.6864455353325181274192131039327
306,1.6871048767232822848502656457014
307,1.6877620689927010780850824935772
308,1.6884171261432446232683696270887
309,1.6890700620413480271401639284048
310,1.6897208904191713824850570874494
311,1.6903696248763332621895414812661
312,1.6910162788816152252173749497925
313,1.6916608657746387274317813253875
314,1.6923033987675162417207948701778
315,1.6929438909464759072562427456064
316,1.6935823552734610837173770368726
317,1.6942188045877023492782765573414
318,1.6948532516072672937997839734977
319,1.6954857089305852489893722102074
320,1.6961161890379469569903860501414
321,1.6967447042929830965424173832426
322,1.6973712669441177813565307506848
323,1.6979958891260005449576096135917
324,1.6986185828609157893550753035401
325,1.6992393600601714597434656987698
326,1.6998582325254651826888905099689
327,1.7004752119502306887865078523981
328,1.7010903099209617092203925532869
329,1.7017035379185183213238478612205
330,1.7023149073194121750497728386527
331,1.7029244293970720391768845426257
332,1.7035321153230907287293769113858
333,1.7041379761684537924045293385719
334,1.7047420229047481442778511355445
335,1.7053442664053549549665923446862
336,1.7059447174466228605598367549730
337,1.7065433867090243618193654582681
338,1.7071402847782964727695530405463
339,1.7077354221465616834518601230070
340,1.7083288092134353284612538509925
341,1.7089204562871150751233721686718
342,1.7095103735854550287478513824691
343,1.7100985712370240930398618619495
344,1.7106850592821485796755786237543
345,1.7112698476739408866803340177987
346,1.7118529462793117207143406066591
347,1.7124343648799694289418090060362
348,1.7130141131734032525314923153056
349,1.7135922007738540470414139455704
350,1.7141686372132700123670492445771
351,1.7147434319422495201982576255267
352,1.7153165943309707217029733517762
353,1.7158881336701072201714425881002
354,1.7164580591717312234655312038407
355,1.7170263799702045419265583157036
356,1.7175931051230556419147422858805
357,1.7181582436118459944122452801510
358,1.7187218043430249630928525168491
359,1.7192837961487689774104941203926
360,1.7198442277878139290456468760581
361,1.7204031079462725370056733946789
362,1.7209604452384431634187784618963
363,1.7215162482076046760817248336870
364,1.7220705253268023822093497374952
365,1.7226232849996232702222245431472
366,1.7231745355609594377154951255160
367,1.7237242852777625981036824119024
368,1.7242725423497864551699477323676
369,1.7248193149103215785697942365532
370,1.7253646110269184939802080538455
371,1.7259084387021018417328021060973
372,1.7264508058740745609491810657482
373,1.7269917204174120664426702550571
374,1.7275311901437507274295530858724
375,1.7280692228024613401914692370179
376,1.7286058260813190514904645851201
377,1.7291410076071615225454404721131
378,1.7296747749465385015903044433138
379,1.7302071356063546454396875189059
380,1.7307380970345023474605102731313
381,1.7312676666204874480377032643223
382,1.7317958516960449463627373452220
383,1.7323226595357493888862593815017
384,1.7328480973576148988237471229135
385,1.7333721723236884686773294734139
386,1.7338948915406371751410296770561
387,1.7344162620603250664651998716922
388,1.7349362908803836598257532869429
389,1.7354549849447767241469881749761
390,1.7359723511443565382685431039321
391,1.7364883963174119421889382721192
392,1.7370031272502117905809693529811
393,1.7375165506775412828928309322380
394,1.7380286732832297519801918097250
395,1.7385395017006727690093389787934
396,1.7390490425133482163850844448743
397,1.7395573022553259595109148925804
398,1.7400642874117711264459915355771
399,1.7405700044194395621878010291020
400,1.7410744596671697585074033461760
401,1.7415776594963673092415514447189
402,1.7420796102014826372652341296242
403,1.7425803180304848149151651191884
404,1.7430797891853293720036344812028
405,1.7435780298224175579519320603352
406,1.7440750460530531681700573703515
407,1.7445708439438940525332739949977
408,1.7450654295173958102985100896511
409,1.7455588087522505337124892228705
410,1.7460509875838231159969312596118
411,1.7465419719045793849562181992023
412,1.7470317675645096460540407962763
413,1.7475203803715487153108458170577
414,1.7480078160919888671796583594105
415,1.7484940804508899827128960045757
416,1.7489791791324833290277436675142
417,1.7494631177805718199702302243653
418,1.7499459019989239226549449124350
419,1.7504275373516654898686538294337
420,1.7509080293636645017712464070168
421,1.7513873835209126706187208325839
422,1.7518656052709031917001680666487
423,1.7523427000230024782395901089874
424,1.7528186731488194956510282534750
425,1.7532935299825690761972938822018
426,1.7537672758214328226310967982385
427,1.7542399159259150872242000500831
428,1.7547114555201940416919988739916
429,1.7551818997924717522606427543704
430,1.7556512538953161238914036346520
431,1.7561195229460022192651790371777
432,1.7565867120268501040432035538891
433,1.7570528261855545583438555413991
434,1.7575178704355177544707314963834
435,1.7579818497561727267115460836809
436,1.7584447690933055363960534377099
437,1.7589066333593742958348635959790
438,1.7593674474338240355097301296765
439,1.7598272161633980981829402197726
440,1.7602859443624471335590760494642
441,1.7607436368132328558337340082804
442,1.7612002982662301303171890264718
443,1.7616559334404270394336649275480
444,1.7621105470236175501341693090464
445,1.7625641436726961161221936170154
446,1.7630167280139452420425364138934
447,1.7634683046433231816780249612896
448,1.7639188781267449913037637368049
449,1.7643684530003647817259332395785
450,1.7648170337708513245424387551032
451,1.7652646249156645189006128330771
452,1.7657112308833255633564349771615
453,1.7661568560936865792508966570710
454,1.7666015049381960779795674265963
455,1.7670451817801638995458203563670
456,1.7674878909550209230008850747583
457,1.7679296367705782481853154518119
458,1.7683704235072822484598485511486
459,1.7688102554184680122512023264786
460,1.7692491367306108197568863550369
461,1.7696870716435735086327172663851
462,1.7701240643308529459345960834924
463,1.7705601189398242144053865078449
464,1.7709952395919806784545143201492
465,1.7714294303831739031244901939200
466,1.7718626953838505614243465759802
467,1.7722950386392856153487885020728
468,1.7727264641698167911652041182053
469,1.7731569759710728307332435197165
470,1.7735865780142030486057891724953
471,1.7740152742461024673671057479152
472,1.7744430685896368343216588001318
473,1.7748699649438628760737883197303
474,1.7752959671842513008055434279510
475,1.7757210791629014769614137775437
476,1.7761453047087603082797319081444
477,1.7765686476278356444629282539205
478,1.7769911117034089099525265898352
479,1.7774127006962458468457564142437
480,1.7778334183448057733809494505267
481,1.7782532683654479159026077700854
482,1.7786722544526383903241044821054
483,1.7790903802791532205355342990288
484,1.7795076494962802211526047301538
485,1.7799240657340212293655767190195
486,1.7803396326012892787715473171198
487,1.7807543536861075723118006853461
488,1.7811682325558048593645083772759
489,1.7815812727572104539221806735879
490,1.7819934778168467659750877058366
491,1.7824048512411214896405130255939
492,1.7828153965165180457709164496032
493,1.7832251171097842638567361535001
494,1.7836340164681204073827661008718
495,1.7840420980193647455403975628610
496,1.7844493651721799264428760614475
497,1.7848558213162358484086232219935
498,1.7852614698223929859479823791037
499,1.7856663140428836794979908601932
500,1.786070357311493531455747158502
501,1.786473602943738666977961512815
502,1.786876054237046327522783172369
503,1.787277714470930278463169883269
504,1.787678586907168888211534893854
505,1.788078674789978740351222095259
506,1.788477981346189523322136076932
507,1.788876509785418060607184791066
508,1.789274263300241136763007090856
509,1.789671245066365366054562120219
510,1.790067458242800173304195073064
511,1.790462905972027134926582081271
512,1.790857591380169597781505284789
513,1.791251517577161209582192698801
514,1.791644687656914055902015362545
515,1.792037104697486797264071508731
516,1.792428771761251036520301200970
517,1.792819691895057011771009616702
518,1.793209868130400421395302846352
519,1.793599303483587185034709930743
520,1.793988000955899020136928229434
521,1.794375963533756652656414960813
522,1.794763194188884962260699477895
523,1.795149695878476524144171408249
