Eigenstate,Potential Energy
1,0.500000003883872714380636955088758954
2,0.64623096300503136197740258969449285
3,0.73633768418927388321300965962663179
4,0.79966543298282722780684903739277974
5,0.8480468441275065040153633682097165
6,0.8870664129884636346316696794393838
7,0.9197214213200215853352394772813011
8,0.9477846556982150880171879358471282
9,0.9723846152792237744061258547327598
10,0.9942815543414171557572838382771270
11,1.0140110431492571808559067610119751
12,1.0319641771314553258761429057560041
13,1.0484350864824276915413587239111633
14,1.0636504690207196568021318904449497
15,1.0777887060045969163762768791090419
16,1.090992667003415707182003668368924
17,1.103378543359771757765287986863889
18,1.115042099196175672539753612699681
19,1.126063194519402781124578512299009
20,1.136509122854737280989746221250834
21,1.146437117327936954459221749813503
22,1.155896261824216304185782775930412
23,1.164928968924999973561921413259939
24,1.173572137308566404957678405066749
25,1.181858068546193306564391306601848
26,1.189815200909965507298764315022341
27,1.197468702335574455516155048138109
28,1.204840953781587186063083715064658
29,1.211951946431634333962640160324115
30,1.218819610536478911064012674898327
31,1.225460089546988859166325361907500
32,1.231887970111136667903785396571833
33,1.238116476198501444871177130302522
34,1.244157633865202493935370455457814
35,1.250022411832998349390010299036730
36,1.255720842022806309274094128032934
37,1.261262123378812949568131841369460
38,1.266654711688927354443921427740456
39,1.271906397609480152490497981105921
40,1.277024374706250675652596874921300
41,1.282015299007154299345945552139939
42,1.286885341306929440421780904418502
43,1.291640233257677368207992484634264
44,1.296285308111013995172357734022600
45,1.300825536840023274685399646189669
46,1.305265560256065583641879578554501
47,1.309609717642017891076519731410038
48,1.313862072345936188195791569087902
49,1.318026434714468152695878414739078
50,1.32210638269122135080085356220903
51,1.32610528035982536516815973100222
52,1.33002629467308107272518867999397
53,1.33387241057714023139331001980682
54,1.33764644471209745997790402846795
55,1.34135105784690126330511251266799
56,1.34498876618641624860768899893578
57,1.34856195167126978204352324634791
58,1.35207287137631922017439688336424
59,1.35552366610082198061203621631030
60,1.35891636823236628979760846709485
61,1.36225290895705630492748307873232
62,1.36553512488014439386704204445336
63,1.36876476411406156564143192162683
64,1.37194349188448466815070551009463
65,1.37507289569954424039833660713304
66,1.37815449012242968518654764565931
67,1.38118972118338626227052990824956
68,1.38417997046334237469010125500904
69,1.38712655887809309260228658922929
70,1.39003075018903774236141079423464
71,1.39289375426387084680550155346524
72,1.39571673010832763299607239482168
73,1.39850078868803250179078899309190
74,1.40124699555768020207391080725251
75,1.40395637331314856204600959291419
76,1.40662990388069229842292713104411
77,1.40926853065606526703419192525787
78,1.41187316050525297810889669794598
79,1.41444466563745065593787340080787
80,1.41698388535998429311946392466891
81,1.41949162772402312575554626799431
82,1.42196867106917084615774335256241
83,1.42441576547433450168799687664425
84,1.42683363412164612959614881910031
85,1.42922297457965332394728815977290
86,1.43158446001147951954200289194593
87,1.43391874031319779584135692435331
88,1.43622644318723915249223649341930
89,1.43850817515527327308390864502454
90,1.44076452251465718857141562766100
91,1.44299605224222645950219399284498
92,1.44520331284891591095870630346860
93,1.44738683518843546859251912669836
94,1.44954713322298454738103277477644
95,1.45168470474876819078350341266079
96,1.45380003208387731023670598869428
97,1.45589358272091208873081979200718
98,1.45796580994655588249131875853820
99,1.46001715343015472481302184124388
100,1.46204803978321254443567926053334
101,1.46405888309158437253126488062991
102,1.46605008542202583205275061892212
103,1.46802203730465102492970981872862
104,1.46997511819274555871891992343464
105,1.47190969690129044198802053056778
106,1.47382613202546406338975940860089
107,1.47572477234031384487792811570562
108,1.47760595718271260658851000718465
109,1.47947001681664902749326734834067
110,1.48131727278284238599837272022709
111,1.48314803823360943419434047542211
112,1.48496261825386570048964576403338
113,1.48676131016909223637060005183777
114,1.48854440384105474616886753490774
115,1.49031218195202674352373668820298
116,1.49206492027822572552857910242029
117,1.49380288795314590786805636011786
118,1.49552634772143695330811277040418
119,1.49723555618395206414561648951126
120,1.49893076403457143839395557185661
121,1.50061221628937821193415338872517
122,1.50228015250875551648751750692388
123,1.50393480701295266947700563336289
124,1.50557640909166371580500373051697
125,1.50720518320814632921234228488285
126,1.50882134919840989730817014036620
127,1.51042512246599892754526200552440
128,1.51201671417289534067643029161645
129,1.51359633142707357316904581380983
130,1.51516417746724919624262973527827
131,1.51672045184537464234422194282893
132,1.51826535060745249592006104511288
133,1.51979906647326092996069486006589
134,1.52132178901561514923427671968390
135,1.52283370483981647988856040169741
136,1.52433499776398906996051749629841
137,1.52582584900104992229119670771489
138,1.52730643734311157036979180046332
139,1.52877693934919120991190259967825
140,1.53023752953717216233105057018546
141,1.53168838058105915855647533456009
142,1.53312966351467576877515379268094
143,1.53456154794307576629016700086498
144,1.53598420226308527459006991138679
145,1.53739779389456421159246704165737
146,1.53880248952417130306139943370175
147,1.54019845536364512305846268729436
148,1.54158585742488980789675015902826
149,1.54296486181446169777598514918966
150,1.54433563505043087547277136998745
151,1.54569834440502508723887231919044
152,1.54705315827697747674692085144055
153,1.54840024659811194103855252761002
154,1.54973978127942222567468446752125
155,1.55107193670276021019723784719972
156,1.55239689026528083785710050009411
157,1.55371482298502106839554288831137
158,1.55502592017747836440372504288134
159,1.5563303722148421365747430579837
160,1.5576283753817123204193972477353
161,1.5589201328437845773205806174780
162,1.5602058557492295673702992210277
163,1.5614857644864823806237719076823
164,1.5627600901270943503693306481304
165,1.5640290760884287473519761591094
166,1.5652929800586528293229275969206
167,1.5665520762361194454273173925241
168,1.5678066579474316140566663647269
169,1.5690570407240353690680833968077
170,1.5703035659371331277702837896577
171,1.5715466051165059428272586064665
172,1.5727865651124497992092717445809
173,1.5740238943042202719521100673165
174,1.5752590901170019999944539686540
175,1.5764927081879447088860895360783
176,1.5777253736281030402805371059047
177,1.5789577949726468630671129016230
178,1.5801907816133681922170883861954
179,1.5814252657906645042846459557660
180,1.5826623306254797629904150461838
181,1.5839032462550912717450792330197
182,1.5851495169950900238655396158935
183,1.5864029437368767621092320539380
184,1.5876657077596189097899057301993
185,1.5889404852197528813233099502305
186,1.5902306065354296835678549449072
187,1.5915402830737414861970879052993
188,1.5928749375367255124930821079211
189,1.5942416992370858096318918644577
190,1.5956501713332833303365259211145
191,1.5971136663528241210885525984276
192,1.5986512906388976479174910463936
193,1.6002916672693598246834404185591
194,1.6020800784083330924984175898234
195,1.6040934987805808178829605895897
196,1.6064764709855652725601504830839
197,1.6095437301325270413190783347766
198,1.6141728543098216098531900953595
199,1.6244879544304963481539742989747
