Eigenstate,Potential Energy
1,0.500000000029099369777892387693686604
2,0.64623093784106006338151819852096992
3,0.73633761026292453726666962285325966
4,0.79966527897638134592329516304260858
5,0.8480465772987517080019150812128106
6,0.8870659999852922746452464347073306
7,0.9197208284744500956935256413683484
8,0.9477838491433208790757402579116070
9,0.9723835609982746749705088738333115
10,0.9942802181879434685181508161682236
11,1.0140093908534090246309307817071453
12,1.0319621742993338722099334732841451
13,1.0484326985915527499405517897177635
14,1.0636476614132339314306584131549911
15,1.0777854438790639871832908611832766
16,1.090988915405692839347423462817030
17,1.103374267173238189599999787567060
18,1.115037263131485131438793126732261
19,1.126057763103863937988232484020421
20,1.136503060421386670033722923609136
21,1.146430388004344502849053791271651
22,1.155888829521047987359516551180686
23,1.164920797324351813437532694670153
24,1.173563189852077059710934432191792
25,1.181848308422937661225029074866613
26,1.189804591044128224139940549583585
27,1.197457205373899915562382922048073
28,1.204828532080600347537710037950358
29,1.211938562044625552745173327489120
30,1.218805225200244580149203513185314
31,1.225444664668318738783107127090045
32,1.231871466753037933119971617072575
33,1.238098855066148729364317220586392
34,1.244138855291602525858300268182766
35,1.250002435764357135120952313980400
36,1.255699628003586206519170774103633
37,1.261239630536466370084155891969281
38,1.266630898718293238876280674201595
39,1.271881222756828757811058686224023
40,1.276997795752961603338000448159166
41,1.281987273253012064664276000598481
42,1.286855825553020235727991181581706
43,1.291609183788870002225371660424626
44,1.296252680678007292505762110784927
45,1.300791286640941492163354016382598
46,1.305229641917582639571591884066848
47,1.309572085199990407283897087627898
48,1.313822679225524509984201367921421
49,1.317985233709723635781109566754951
50,1.32206332594411728399212640904777
51,1.32606031933870793009690940969820
52,1.32997938015051572424334993144516
53,1.33382349260712781114789195598164
54,1.33759547260663322777847548583204
55,1.34129798015184884269925308741054
56,1.34493353065666723083334292323038
57,1.34850450524515841228279594229032
58,1.35201316014926019755571882958095
59,1.35546163529813793427672448944675
60,1.35885196218126994275592637015969
61,1.36218607105775070028815057151433
62,1.36546579757600282894153527956353
63,1.36869288886084705257489792438113
64,1.37186900911856680890187276814006
65,1.37499574480506936244763356575166
66,1.37807460939739792519038858113264
67,1.38110704780458700035453242747929
68,1.38409444045009700401413746346162
69,1.38703810705475154843903905924368
70,1.38993931014617250285196952956289
71,1.39279925831810924353441264076131
72,1.39561910926076026283908889545874
73,1.39839997258113230026379462206036
74,1.40114291243066331018859309127082
75,1.40384894995570447977553785044040
76,1.40651906558500695377489231966371
77,1.40915420116705652456382866773204
78,1.41175526196893374756344290706430
79,1.41432311854733012218772786657301
80,1.41685860850141285283371624163017
81,1.41936253811638136294546634585340
82,1.42183568390579728463104348632466
83,1.42427879406008091252199087801376
84,1.42669258980794281884868581792343
85,1.42907776669696005053129599807728
86,1.43143499579899046369669117623346
87,1.43376492484566128023187228634457
88,1.43606817929874457324869768820532
89,1.43834536335984888617323222070508
90,1.44059706092351297344374094919306
91,1.44282383647746619875068080365294
92,1.44502623595353182921285638699542
93,1.44720478753238720882832289512940
94,1.44936000240515186580048456632089
95,1.45149237549455345431082252505351
96,1.45360238613821960919324359114319
97,1.45569049873645944985547764774671
98,1.45775716336672559549814841157004
99,1.45980281636679408149313869955781
100,1.46182788088855322636665618274134
101,1.46383276742416319467805812566126
102,1.46581787430622242636430602807317
103,1.46778358818346918950707509937330
104,1.46973028447343924876919765019902
105,1.47165832779340756799007601143082
106,1.47356807237085120118611936994060
107,1.47545986243459244424677152655025
108,1.47733403258770208006232559784483
109,1.47919090816317395628559006337192
110,1.48103080556331971480435456440853
111,1.48285403258376663080313580909513
112,1.48466088872289208565917347191263
113,1.48645166547747266212358762525834
114,1.48822664662527709248228406423978
115,1.48998610849529184188858434161247
116,1.49173032022621977741138587457704
117,1.49345954401386066033584253299436
118,1.49517403534794116814806128599145
119,1.49687404323892843891891463156548
120,1.49855981043533528856719948844631
121,1.50023157363198698423805992812157
122,1.50188956366970054389987345112498
123,1.50353400572679533933073514996517
124,1.50516511950283609985709544778997
125,1.50678311939497984794395490516562
126,1.50838821466728310043845701047740
127,1.50998060961330509138235764381275
128,1.51156050371232018511897575007357
129,1.51312809177944057518203941427692
130,1.51468356410993198258670735744151
131,1.51622710661798966302484849135204
132,1.51775890097022705526605179436792
133,1.51927912471411762148154940062126
134,1.52078795140161915424982910576467
135,1.52228555070819171665988349702089
136,1.52377208854741669439775491248710
137,1.52524772718141113075864303166705
138,1.52671262532721790353597148276447
139,1.52816693825935019683340474363790
140,1.52961081790865327487745166405270
141,1.53104441295764200741832758203830
142,1.53246786893246452303979214919253
143,1.53388132829163371652916774830390
144,1.53528493051166115682208495441009
145,1.53667881216972375427705119198318
146,1.53806310702348567728432222378642
147,1.53943794608818980524740121354372
148,1.54080345771113404694213839096747
149,1.54215976764363432518426481222796
150,1.54350699911057786865888430797572
151,1.54484527287766272514171337437034
152,1.54617470731641379525721012311890
153,1.54749541846706433644215416074025
154,1.54880752009938683633106273085743
155,1.55011112377155149153024155731199
156,1.55140633888709015811720792947051
157,1.55269327275003682044197289695022
158,1.55397203061831639630445172264107
159,1.5552427157554455513141748491186
160,1.5565054294806118599427548444690
161,1.5577602712171898093608242431166
162,1.5590073385397531071316237285375
163,1.5602467272196381460312130522905
164,1.5614785312691132625612239037723
165,1.5627028429842023893424257563161
166,1.5639197529862136169486201615971
167,1.5651293502620198974711386627748
168,1.5663317222031345786981976538280
169,1.5675269546436268309703916519373
170,1.5687151318969167097989611534480
171,1.5698963367914900486781628587738
172,1.5710706507055710487206091517826
173,1.5722381536007879674168879699968
174,1.5733989240548677500043874338947
175,1.5745530392933935883489154266205
176,1.5757005752206551136626870042205
177,1.5768416064496244835668617639085
178,1.5779762063310875178654924150078
179,1.5791044469819563279473970970526
180,1.5802263993127943861854506724003
181,1.5813421330545766838901535741448
182,1.5824517167847126731734103145469
183,1.5835552179523550419670001993093
184,1.5846527029030185637022912325673
185,1.5857442369025308297451098260385
186,1.5868298841603358331751326516824
187,1.5879097078521742043778950037653
188,1.5889837701421555347336609241645
189,1.5900521322042465194610490419602
190,1.5911148542431905706600041253243
191,1.5921719955148781230724036801726
192,1.5932236143461840147293010899556
193,1.5942697681542902462979340283827
194,1.5953105134655074598758389594082
195,1.5963459059336130695549258336659
196,1.5973760003577197356189457659985
197,1.5984008506996885576584776927077
198,1.5994205101011011485452897204755
199,1.6004350308998034230824917078666
200,1.6014444646460350414922061655746
201,1.6024488621181554841203649681175
202,1.6034482733379801334709262279884
203,1.6044427475857370182521864483143
204,1.6054323334146558342977290107193
205,1.6064170786651992076747121974504
206,1.6073970304789492186774955028721
207,1.6083722353121550573327654721777
208,1.6093427389489560318217916382119
209,1.6103085865142856726482776060899
210,1.6112698224864684281517308280636
211,1.6122264907095163103236311750885
212,1.6131786344051357180494449685123
213,1.6141262961844488156654084526902
214,1.6150695180594444425144306347372
215,1.6160083414541577597268275009264
216,1.6169428072155925886773534630729
217,1.6178729556243904001547950233744
218,1.6187988264052549266881120162702
219,1.6197204587371356709589438188011
220,1.6206378912631828184220013815228
221,1.6215511621004714564169380576918
222,1.6224603088495122971308216878276
223,1.6233653686035424652357499924697
224,1.6242663779576114094933931954377
225,1.6251633730174644948622729812645
226,1.6260563894082278130418170963046
227,1.6269454622829028542928386322323
228,1.6278306263306728507269964910779
229,1.6287119157850279432015217098168
230,1.6295893644317138580488095592087
231,1.6304630056165058828962984638392
232,1.6313328722528185504824462642839
233,1.6321989968291460159580153835676
234,1.6330614114163492737233620432578
235,1.6339201476747833848861495087168
236,1.6347752368612744140923115706811
237,1.6356267098359496958413422513354
238,1.6364745970689231612807437680400
239,1.6373189286468411610430909346213
240,1.6381597342792909375256373631597
241,1.6389970433050760279433721531750
242,1.6398308846983614540878701595255
243,1.6406612870746927295466516526360
244,1.6414882786968903726003260836155
245,1.6423118874808242978894201878357
246,1.6431321410010706053990913512063
247,1.6439490664964521485276772041740
248,1.6447626908754704617736361660510
249,1.6455730407216240165365048059961
250,1.6463801422986231891325246422152
251,1.6471840215554998404320706450436
252,1.6479847041316143050136509696913
253,1.6487822153615648614324897090921
254,1.6495765802799993398559633000560
255,1.6503678236263327464898470140555
256,1.6511559698493709895575493188980
257,1.6519410431118470975711590994180
258,1.6527230672948663739481687918701
259,1.6535020660022672908192860438068
260,1.6542780625648985077264342981347
261,1.6550510800448123282633171558912
262,1.6558211412393793193850664860986
263,1.6565882686853229432690034968016
264,1.6573524846626796518789326941027
265,1.6581138111986829687604711058810
266,1.6588722700715737250992031752940
267,1.6596278828143396625733864957330
268,1.6603806707183844359998881995706
269,1.6611306548371302849716058819994
270,1.6618778559895500979105944655754
271,1.6626222947636381517724095817361
272,1.6633639915198135062452019290078
273,1.6641029663942634948371200674178
274,1.6648392393022245211486333396518
275,1.6655728299412040351881950227402
276,1.6663037577941419673626786678328
277,1.6670320421325191034350771314233
278,1.6677577020194041543759665222918
279,1.6684807563124510235560600804444
280,1.6692012236668383641280638062135
281,1.6699191225381593154038467668358
282,1.6706344711852589144775473187378
283,1.6713472876730223955238173047204
284,1.6720575898751115332887505465284
285,1.6727653954766558380170992004337
286,1.6734707219768946265432837501399
287,1.6741735866917750288202022066181
288,1.6748740067565023316444844513856
289,1.6755719991280473076249009147504
290,1.6762675805876112619040246711132
291,1.6769607677430466375561593290641
292,1.6776515770312360645504820501354
293,1.6783400247204337580368401985077
294,1.6790261269125643028518635462095
295,1.6797098995454809113721603716016
296,1.6803913583951907402580146540168
297,1.6810705190780371977947919282862
298,1.6817473970528485585661316080051
299,1.6824220076230496882968623197096
300,1.6830943659387386294517519262350
301,1.6837644869987284590078039948109
302,1.6844323856525565113130561037469
303,1.6850980766024581391410323293372
304,1.6857615744053085904500760038536
305,1.6864228934745344293543532342561
306,1.6870820480819937645063483547046
307,1.6877390523598224668445237443387
308,1.6883939203022538551346671793205
309,1.6890466657674079385706670292816
310,1.6896973024790505515811826492014
311,1.6903458440283259757453577936129
312,1.6909923038754605619504951575068
313,1.6916366953514387455403658778256
314,1.6922790316596532587285288497420
315,1.6929193258775288599198160345101
316,1.6935575909581209555825276863136
317,1.6941938397316866532767412727740
318,1.6948280849072335970841954655143
319,1.6954603390740437270022878571655
320,1.6960906147031719635611398029391
321,1.6967189241489237365985127920600
322,1.6973452796503074726243233716529
323,1.6979696933324655548143668165178
324,1.6985921772080827327740962015296
325,1.6992127431787737440536120146844
326,1.6998314030364483846416018283641
327,1.7004481684646568491943422046473
328,1.7010630510399125301954787345438
329,1.7016760622329972509056027866042
330,1.7022872134102453637689942230445
331,1.7028965158348081528542207670074
332,1.7035039806678996015539921795087
333,1.7041096189700239040823227472475
334,1.7047134417021829047759067444590
335,1.7053154597270677801151877821480
336,1.7059156838102310214998584176127
337,1.7065141246212415910081411911752
338,1.7071107927348243089745643789006
339,1.7077056986319795378765381945694
340,1.7082988527010892538534251147715
341,1.7088902652390052194186365256516
342,1.7094799464521217544974619358457
343,1.7100679064574327435630909108453
344,1.7106541552835728725612673240405
345,1.7112387028718449149408029793767
346,1.7118215590772305415686126898039
347,1.7124027336693882198708128792453
348,1.7129822363336350139079455441751
349,1.7135600766719158302916783737497
350,1.7141362642037576522680711307539
351,1.7147108083672108495541416049223
352,1.7152837185197772462773268805422
353,1.7158550039393242313802431649502
354,1.7164246738249863259512867874220
355,1.7169927372980545727494631150281
356,1.7175592034028519576973667152588
357,1.7181240811075981023716739312173
358,1.7186873793052624714839939841673
359,1.7192491068144018404827009640944
360,1.7198092723799909611868161115964
361,1.7203678846742381703136736943337
362,1.7209249522973924224929579307955
363,1.7214804837785363433735111687076
364,1.7220344875763703268100571347237
365,1.7225869720799859124913644792240
366,1.7231379456096273216730190094368
367,1.7236874164174440430202411432318
368,1.7242353926882312572844027648899
369,1.7247818825401627333542161349917
370,1.7253268940255119088523629335866
371,1.7258704351313640085825280688849
372,1.7264125137803181573027975158472
373,1.7269531378311794535370675689355
374,1.7274923150796453129009509620819
375,1.7280300532589767725087206065646
376,1.7285663600406662126741559509214
377,1.7291012430350932851132020361519
378,1.7296347097921722150569707677921
379,1.7301667678019923170744738179946
380,1.7306974244954484813673699991612
381,1.7312266872448645059698207646313
382,1.7317545633646063930215297479550
383,1.7322810601116902837725987284953
384,1.7328061846863799960189764980328
385,1.7333299442327777852208038419204
386,1.7338523458394089879529139595992
387,1.7343733965397962970211834290975
388,1.7348931033130276050390109902539
389,1.7354114730843180911450069345080
390,1.7359285127255637399634349813875
391,1.7364442290558866097419391600919
392,1.7369586288421754580378864218330
393,1.7374717187996191984331410676194
394,1.7379835055922317693680300739350
395,1.7384939958333712719592863510838
396,1.7390031960862530276635216727723
397,1.7395111128644561856859250730193
398,1.7400177526324238882615843353564
399,1.7405231218059555595934978472280
400,1.7410272267526956183966468944972
401,1.7415300737926146629605562068232
402,1.7420316691984838739392770120900
403,1.7425320191963454556007640668800
404,1.7430311299659770086178632425269
405,1.7435290076413472998385111841211
406,1.7440256583110695380621554763983
407,1.7445210880188492725350440144436
408,1.7450153027639244173506629368554
409,1.7455083085015002628253005868864
410,1.7460001111431819883194129747192
411,1.7464907165573989365159566953287
412,1.7469801305698242317372006056763
413,1.7474683589637908213530158937484
414,1.7479554074807003641190720935111
415,1.7484412818204292494005890235818
416,1.7489259876417281769077860008811
417,1.7494095305626181454234071605356
418,1.7498919161607800137521891098342
419,1.7503731499739419123975449079427
420,1.7508532375002594878810363508095
421,1.7513321841986929318827603896561
422,1.7518099954893800767982629090433
423,1.7522866767540033938468360763903
424,1.7527622333361545074498627160711
425,1.7532366705416926052325391994886
426,1.7537099936391003504837864634638
427,1.7541822078598347816973329196811
428,1.7546533183986732128757578286755
429,1.7551233304140580469780776724123
430,1.7555922490284333646105009570044
431,1.7560600793285807916074469437399
432,1.7565268263659517950097731576776
433,1.7569924951569917453304974352902
434,1.7574570906834668430372455286252
435,1.7579206178927817329182601054950
436,1.7583830816982957073141566537659
437,1.7588444869796356595773110970204
438,1.7593048385830047698141279618945
439,1.7597641413214876042067990656817
440,1.7602223999753526991185283011837
441,1.7606796192923497898261809835130
442,1.7611358039880052475178366226054
443,1.7615909587459153722405560417162
444,1.7620450882180321611601481004977
445,1.7624981970249508827813760432181
446,1.7629502897561904814677255437202
447,1.7634013709704739814189435848443
448,1.7638514451960021082973589404000
449,1.7643005169307279689963419154142
450,1.7647485906426249419815456661444
451,1.7651956707699552812873431379906
452,1.7656417617215322755056692158700
453,1.7660868678769817048273230054789
454,1.7665309935869989850725114685408
455,1.7669741431736056225716448900113
456,1.7674163209304002768822642833388
457,1.7678575311228091270376596930060
458,1.7682977779883319372109087349337
459,1.7687370657367863357061426145075
460,1.7691753985505499496082138429866
461,1.7696127805847982448013864775012
462,1.7700492159677412843958083934199
463,1.7704847088008580093187801542360
464,1.7709192631591262019640651661342
465,1.7713528830912521016208395522726
466,1.7717855726198968023665758990899
467,1.7722173357418987139263989944523
468,1.7726481764284971011259375951012
469,1.7730780986255491786213318670949
470,1.7735071062537482854336304198395
471,1.7739352032088374063799977986555
472,1.7743623933618223380005608898833
473,1.7747886805591798498685230923405
474,1.7752140686230683452637481610475
475,1.7756385613515299439503970108834
476,1.7760621625186965008494839955618
477,1.7764848758749898935882452549630
478,1.7769067051473212549002494324032
479,1.7773276540392880392439262642152
480,1.7777477262313693182066351328902
481,1.7781669253811178555524718186939
482,1.7785852551233525306842887505316
483,1.7790027190703464905013391207580
484,1.7794193208120138493892213378125
485,1.7798350639160964142013215855846
486,1.7802499519283450190066757227216
487,1.7806639883727023183682730620835
488,1.7810771767514816356189167343450
489,1.7814895205455450942156924060005
490,1.7819010232144788951963869880921
491,1.7823116881967678749187558678399
492,1.7827215189099679311642613341899
493,1.7831305187508762925091636850856
494,1.7835386910957007248945165772577
495,1.7839460393002258677801823093114
496,1.7843525666999799441931400574322
497,1.7847582766103975300756636901130
498,1.7851631723269823280712493387922
499,1.7855672571254674429523821251860
500,1.785970534261975289040089761949
501,1.786373006973172875506109269378
502,1.786774678476429924584025900808
503,1.787175551969971290660833836949
504,1.787575630633031523926555275023
505,1.787974917626004425884966210085
506,1.788373416090593326648327471907
507,1.788771129149959931871803733444
508,1.789168059908871379116986749581
509,1.789564211453843734357156230659
510,1.789959586853287981683460762124
511,1.790354189157651737106672750325
512,1.790748021399560586470448077079
513,1.791141086593957663028420253184
514,1.791533387738242140968167268068
515,1.791924927812407018997637327042
516,1.792315709779174404202826184226
517,1.792705736584129370787723158292
518,1.793095011155854178955203069062
519,1.793483536406059635747227773894
520,1.793871315229716454722165655261
521,1.794258350505183409574737426667
522,1.794644645094336557776270798917
523,1.795030201842695971269693700468
