Eigenstate,Potential Energy
1,0.500000000128750367107949361251812815
2,0.64623093849153329602424560462955461
3,0.73633761217365292435029178472214796
4,0.79966528295625535460112041420328379
5,0.8480465841928071432144274208003545
6,0.8870660106534169782381389255227826
7,0.9197208437835474090295131272738550
8,0.9477838699640498472482664001912694
9,0.9723835882035419251629023032747484
10,0.9942802526521448566963793432747064
11,1.0140094334520242489475361434319709
12,1.0319622259087009628731913113771352
13,1.0484327600887404945614948712964106
14,1.0636477336759706725662759259106593
15,1.0777855277857004384760558166919461
16,1.090989011835186280943725564850156
17,1.103374377005150581143106740394520
18,1.115037387245990569303171791595550
19,1.126057902381762560245337187533193
20,1.136503215744123120872693471579515
21,1.146430560254029693549490104332618
22,1.155889019580483289716847214617940
23,1.164921006077055082260807908958344
24,1.173563418182310055319959082885994
25,1.181848557215734561796508318516576
26,1.189804861185325000398339860627755
27,1.197457497750164398721771298791026
28,1.204828847579462863324553887360692
29,1.211938901554510024852342470315084
30,1.218805589610500028982706671682223
31,1.225445054869251118169485954967893
32,1.231871883635942260331280044949551
33,1.238099299523341473498890330250587
34,1.244139328216454227074459346484194
35,1.250002938051325233020455608154325
36,1.255700160548248060525524486183732
37,1.261240194235552458257108758471167
38,1.266631494469720524468776405404677
39,1.271881851459734215174139484344298
40,1.276998458307735896637156423285755
41,1.281987970561333374381866474976311
42,1.286856558517888229163543479576522
43,1.291609953314639945224425217036642
44,1.296253487670424300491802844766585
45,1.300792132007174919250757822403888
46,1.305230526566260605126752600296432
47,1.309573010041234459797964888984432
48,1.313823645170984428541525759530845
49,1.317986241672612369765538508479755
50,1.32206437683924603197981553006871
51,1.32606141408252135914846499481472
52,1.32998051966112733103647575726825
53,1.33382467780435542659051500664944
54,1.33759670441203466691646919361659
55,1.34129925948875770188594958417766
56,1.34493485845022883426369828422569
57,1.34850588242236591011561329992761
58,1.35201458763899081795589702591182
59,1.35546311403118939180652162821579
60,1.35885349309039700563292610488823
61,1.36218765507770191910813888015806
62,1.36546743564355742953875097023057
63,1.36869458191485199576038339680696
64,1.37187075809997401988422725000694
65,1.37499755065697313280028213203234
66,1.37807647306507249028522630478339
67,1.38110897023552429523487906419925
68,1.38409642259404460073040705484256
69,1.38704014986375077791909677396020
70,1.38994141457459676442397545208559
71,1.39280142532270250526570472858074
72,1.39562133980067575589748274354105
73,1.39840226761797141055088062569902
74,1.40114527292851467053582556193037
75,1.40385137688118326603523373562720
76,1.40652155990729438817823522871643
77,1.40915676385793958975823342914844
78,1.41175789400284511478121197927443
79,1.41432582090138829703739640900930
80,1.41686138215546254224440861833334
81,1.41936538405303406683447843374380
82,1.42183860311047211590353422152613
83,1.42428178752104564905150829018758
84,1.42669565851635519112644973418217
85,1.42908091164690926871225349736763
86,1.43143821798753898780998549956578
87,1.43376822527288683736421276475835
88,1.43607155896778242554933997040410
89,1.43834882327693435357061118995077
90,1.44060060209802421500507813430381
91,1.44282745992196725665827255907386
92,1.44502994268381593937263687569681
93,1.44720857856752038216970968799864
94,1.44936387876751674436984770108379
95,1.45149633820989344630498386167490
96,1.45360643623568330712401451964598
97,1.45569463724864533608195898744876
98,1.45776139132972703940868738636474
99,1.45980713482024463266629787460333
100,1.46183229087567220808718426019104
101,1.46383726999180160223221797192414
102,1.46582247050490913458736623348543
103,1.46778827906745747410520937378617
104,1.46973507110075362598873897846358
105,1.47166321122589095725736331370521
106,1.47357305367421241539340432884449
107,1.47546494267845401241215419721067
108,1.47733921284564840714495152450795
109,1.47919618951279982499202316313911
110,1.48103618908627913427676843041971
111,1.48285951936582203713609277861464
112,1.48466647985396389924903934101148
113,1.48645736205168920691207863697005
114,1.48823244974102488221451118497727
115,1.48999201925526623856595391871326
116,1.49173633973747602718031339645350
117,1.49346567338786531211478590588636
118,1.49518027570062388035844850997730
119,1.49688039569073417974896234194469
120,1.49856627611127693526261696337102
121,1.50023815366169832697976413355034
122,1.50189625918748969989510583293174
123,1.50354081787169858281283417338212
124,1.50517204941867211375772851525338
125,1.50679016823040440307237192348061
126,1.50839538357584416807368414057132
127,1.50998789975349839525688898340783
128,1.51156791624764519884658102449428
129,1.51313562787845697125722591099616
130,1.51469122494631653915979178661441
131,1.51623489337059363473432856701528
132,1.51776681482313401448922337564801
133,1.51928716685670177644342507794114
134,1.52079612302860415051352511344883
135,1.52229385301970992860375117520107
136,1.52378052274906901336844573761041
137,1.52525629448432725667630063124595
138,1.52672132694811714681384948466290
139,1.52817577542060279756327994237516
140,1.52961979183834224632247596809448
141,1.53105352488962551094623861960506
142,1.53247712010643878172284700390453
143,1.53389071995319647473202964333559
144,1.53529446391237569319508490502179
145,1.53668848856718345566997333721454
146,1.53807292768137918119612406443254
147,1.53944791227636671852819025773325
148,1.54081357070567124856661246956154
149,1.54217002872690286102123011711310
150,1.54351740957131044626693405452112
151,1.54485583401102181673101324504912
152,1.54618542042406035706609254147120
153,1.54750628485722715289026647751015
154,1.54881854108693249742421468752808
155,1.55012230067805501210830726625954
156,1.55141767304090624765455026343241
157,1.55270476548637181222917701849293
158,1.55398368327930084496302220635502
159,1.5552545296902075077185108419883
160,1.5565174060453508327517073422474
161,1.5577724117752514224880537612226
162,1.5590196444617044626152305800927
163,1.5602591998833439018956601216918
164,1.5614911720598124353996922081652
165,1.5627156532945858914857851935816
166,1.5639327342165025382260603612114
167,1.5651425038200445417101470634379
168,1.5663450495044142652567284096688
169,1.5675404571114504717404351497705
170,1.5687288109624241722714885458708
171,1.5699101938937543158109956434824
172,1.5710846872916811865062138678281
173,1.5722523711259329112045469354396
174,1.5734133239824209207926415424473
175,1.5745676230949983504259691543223
176,1.5757153443763110851404985351144
177,1.5768565624477747115223108488941
178,1.5779913506687065299744868435223
179,1.5791197811646390726736033901072
180,1.5802419248548460737634173731557
181,1.5813578514791035405228530842784
182,1.5824676296237136210505405159758
183,1.5835713267468143178971837333523
184,1.5846690092029992893438569624962
185,1.5857607422672695466157718778827
186,1.5868465901583380158168278324398
187,1.5879266160613107652572009982733
188,1.5890008821497603346620000123411
189,1.5900694496072148975286515512558
190,1.5911323786480789078897601165589
191,1.5921897285380044542173370294520
192,1.5932415576137297028567822556522
193,1.5942879233024027350293084228586
194,1.5953288821404041183779957653873
195,1.5963644897916861456137245427952
196,1.5973948010656424323610657863451
197,1.5984198699345222497296266770628
198,1.5994397495504037537984391774119
199,1.6004544922617389460806846465665
200,1.6014641496294843053844987014118
201,1.6024687724428280677088106790053
202,1.6034684107345275305527536237870
203,1.6044631137958670365876264257476
204,1.6054529301912482518311494782963
205,1.6064379077724227039134434301229
206,1.6074180936923795994190687056162
207,1.6083935344188947912200748915756
208,1.6093642757477551175012417682832
209,1.6103303628156638556067756546391
210,1.6112918401128387866147979766566
211,1.6122487514953102299082798380182
212,1.6132011401969292751844152366070
213,1.6141490488410905901155265104422
214,1.6150925194521847796745004502462
215,1.6160315934667795036883127742903
216,1.6169663117445433074139055894249
217,1.6178967145789161245210058815114
218,1.6188228417075354252818528981901
219,1.6197447323224212832623166839032
220,1.6206624250799328690030928040266
221,1.6215759581104942733533870788784
222,1.6224853690281068581990595604641
223,1.6233906949396416958023719693416
224,1.6242919724539271564428443890225
225,1.6251892376906342013036196708251
226,1.6260825262889629189510327142345
227,1.6269718734161389486691163530541
228,1.6278573137757216012745724695969
229,1.6287388816157308299869675765513
230,1.6296166107365977380311910862210
231,1.6304905344989404126861585808653
232,1.6313606858311754951503392045190
233,1.6322270972369604721888073536898
234,1.6330898008024828360975219028076
235,1.6339488282035892845627554542770
236,1.6348042107127646596726796961006
237,1.6356559792059642467070558175568
238,1.6365041641693011642234207839979
239,1.6373487957055942815377971584142
240,1.6381899035407788175475543226570
241,1.6390275170301839027812152800717
242,1.6398616651646799611767484843538
243,1.6406923765766999429234163740269
244,1.6415196795461360971737411162439
245,1.6423436020061166583212311937346
246,1.6431641715486649650095341189717
247,1.6439814154302423942634877666405
248,1.6447953605771826919205069773248
249,1.6456060335910126685103302425887
250,1.6464134607536696453526193437728
251,1.6472176680326135509607128078352
252,1.6480186810858364663400051866667
253,1.6488165252667746914917020176907
254,1.6496112256291229900974753331151
255,1.6504028069315548925484055860006
256,1.6511912936423491428370473540267
257,1.6519767099439286808217636732728
258,1.6527590797373086047046315332199
259,1.6535384266464599173726855846302
260,1.6543147740225894431228598932605
261,1.6550881449483362286605364952066
262,1.6558585622418891539561848642474
263,1.6566260484610246037140208546463
264,1.6573906259070696505017183520037
265,1.6581523166287892749784581509382
266,1.6589111424261997911858717193699
267,1.6596671248543116903859322236935
268,1.6604202852268019374172617648924
269,1.6611706446196199897617151319946
270,1.6619182238745232637604381204683
271,1.6626630436025513322522228684960
272,1.6634051241874328335391652269132
273,1.6641444857889325351554520676129
274,1.6648811483461357618426021113234
275,1.6656151315806740637222032377880
276,1.6663464549998904034532864726075
277,1.6670751378999513468504955674430
278,1.6678011993688980120953987987145
279,1.6685246582896472812261478483197
280,1.6692455333429353680150960671652
281,1.6699638430102116323323748988596
282,1.6706796055764801385662532423250
283,1.6713928391330921718786940744202
284,1.6721035615804868701954368228227
285,1.6728117906308867805857194833950
286,1.6735175438109443662013437933463
287,1.6742208384643445245287546357691
288,1.6749216917543595202216100016123
289,1.6756201206663609821050431960707
290,1.6763161420102896984447933722666
291,1.6770097724230810530190344117832
292,1.6777010283710489885378723950674
293,1.6783899261522324048604787999975
294,1.6790764818986990306411613222310
295,1.6797607115788088572992053151567
296,1.6804426309994447226778492594463
297,1.6811222558081999779502904397695
298,1.6817996014955325564089045662020
299,1.6824746833968822489228035516266
300,1.6831475166947529386394354418566
301,1.6838181164207602083886340486144
302,1.6844864974576464157882871729732
303,1.6851526745412604112963375140161
304,1.6858166622625054789128908969383
305,1.6864784750692569302735479311558
306,1.6871381272682486176338247136618
307,1.6877956330269255500470441920178
308,1.6884510063752700935734444761138
309,1.6891042612075978472518747582060
310,1.6897554112843235325074458917100
311,1.6904044702337004934888660075155
312,1.6910514515535313241179866552694
313,1.6916963686128510173209671208379
314,1.6923392346535844434968419901460
315,1.6929800627921774807255595368220
316,1.6936188660212031752783789332809
317,1.6942556572109404740386631830326
318,1.6948904491109308831506066281705
319,1.6955232543515101976061074592518
320,1.6961540854453153062634165130908
321,1.6967829547887699945410904272235
322,1.6974098746635458626171709286939
323,1.6980348572380018766538128710395
324,1.6986579145686015337603677286302
325,1.6992790586013094063396968176138
326,1.6998983011729653068012561760450
327,1.7005156540126388972515543409041
328,1.7011311287429619373127569241513
329,1.7017447368814431489841861657329
330,1.7023564898417621343763928599633
331,1.7029663989350437891643896470428
332,1.7035744753711142773721354720426
333,1.7041807302597389505212036279358
334,1.7047851746118403997712125042858
335,1.7053878193407009607047064815028
336,1.7059886752631457336591623794671
337,1.7065877531007089968303474367545
338,1.7071850634807850761119578113284
339,1.7077806169377597414299861908349
340,1.7083744239141282263010633045509
341,1.7089664947615955897388681184179
342,1.7095568397421619233406575817306
343,1.7101454690291920471926259939340
344,1.7107323927084696943093646699511
345,1.7113176207792380091047658040272
346,1.7119011631552238410418845446277
347,1.7124830296656494053291967053032
348,1.7130632300562281290922971341867
349,1.7136417739901482348259138953284
350,1.7142186710490416105530190757141
351,1.7147939307339400615662331326944
352,1.7153675624662186336041151775160
353,1.7159395755885252995352869474603
354,1.7165099793656984319400603878899
355,1.7170787829856724350167873723976
356,1.7176459955603697539713962776435
357,1.7182116261265825095528913388004
358,1.7187756836468430106008409137318
359,1.7193381770102788988746437181133
360,1.7198991150334618734680503586619
361,1.7204585064612417493477186170278
362,1.7210163599675723415632295905869
363,1.7215726841563237809748672809831
364,1.7221274875620862960441408470799
365,1.7226807786509637078994868807889
366,1.7232325658213555275290884410485
367,1.7237828574047305586152566736990
368,1.7243316616663888065962692772734
369,1.7248789868062163387103499064580
370,1.7254248409594288207743586747192
371,1.7259692321973065969665866939709
372,1.7265121685279202824439992663171
373,1.7270536578968468492715389142979
374,1.7275937081878805283228476010448
375,1.7281323272237292333392145355394
376,1.7286695227667079784311191088796
377,1.7292053025194210937729343797287
378,1.7297396741254364229107638217598
379,1.7302726451699533580139119343960
380,1.7308042231804614868644900682820
381,1.7313344156273927445979807881452
382,1.7318632299247642064914620978072
383,1.7323906734308162151648996007291
384,1.7329167534486408251951768393671
385,1.7334414772268042063191424037820
386,1.7339648519599636844281384979799
387,1.7344868847894751909138621683740
388,1.7350075828039950790750514593171
389,1.7355269530400770048832681519956
390,1.7360450024827610845707926045982
391,1.7365617380661556701142878971400
392,1.7370771666740153758993969887555
393,1.7375912951403128558013886055314
394,1.7381041302498029383795768257856
395,1.7386156787385820045352908579821
396,1.7391259472946422869219061616669
397,1.7396349425584207503701381928877
398,1.7401426711233425918280460962694
399,1.7406491395363579569902547312768
400,1.7411543542984762060436211989060
401,1.7416583218652938110160937077035
402,1.7421610486475166646795793640101
403,1.7426625410114796576791258412183
404,1.7431628052796614541561964837507
405,1.7436618477311919697932167752854
406,1.7441596746023587011386967989045
407,1.7446562920871090641646204539183
408,1.7451517063375462879457256539459
409,1.7456459234644217687387779043666
410,1.7461389495376264447276714176929
411,1.7466307905866754988923692206903
412,1.7471214526011900217186311966567
413,1.7476109415313767637368097431130
414,1.7480992632885024545102464842830
415,1.7485864237453670267354181331750
416,1.7490724287367722318044408608504
417,1.7495572840599885541212314287938
418,1.7500409954752176484081764322283
419,1.7505235687060546417656227710112
420,1.7510050094399453480488322954245
421,1.7514853233286424148543116001588
422,1.7519645159886597553882623790397
423,1.7524425930017231747423054821985
424,1.7529195599152208804589944457487
425,1.7533954222426503358540207844105
426,1.7538701854640651450803967042369
427,1.7543438550265195399077570400972
428,1.7548164363445105705620805061935
429,1.7552879348004220051514820859659
430,1.7557583557449628955534352741353
431,1.7562277044976084129761632739651
432,1.7566959863470402062268775303329
433,1.7571632065515817282424646184166
434,1.7576293703396397408223160451607
435,1.7580944829101399377437693522786
436,1.7585585494329647085088078563874
437,1.7590215750493913303055486782036
438,1.7594835648725297016361623670427
439,1.7599445239877604357391374475136
440,1.7604044574531745275157180969613
441,1.7608633703000119022752937872073
442,1.7613212675331025646224710090942
443,1.7617781541313101563941600814572
444,1.7622340350479727110829825089076
445,1.7626889152113501106330906222307
446,1.7631427995250694517067174974917
447,1.7635956928685756812442091740012
448,1.7640476000975809184305629242364
449,1.7644985260445205111844940867402
450,1.7649484755190081963287139853603
451,1.7653974533082980928374918755258
452,1.7658454641777466058614764283751
453,1.7662925128712802315009444167245
454,1.7667386041118659093065440292418
455,1.7671837426019878160379669182028
456,1.7676279330241261796419767917584
457,1.7680711800412431039895698021604
458,1.7685134882972721087006564124106
459,1.7689548624176142206804062717824
460,1.7693953070096405974646279383395
461,1.7698348266631998856672901973029
462,1.7702734259511338978565653750176
463,1.7707111094298005994605291270448
464,1.7711478816396029729887717483096
465,1.7715837471055281541871625434329
466,1.7720187103376944173584356085835
467,1.7724527758319057585848113964126
468,1.7728859480702195836992851127670
469,1.7733182315215204931136830885569
470,1.7737496306421082290510846112000
471,1.7741801498762946203138632104495
472,1.7746097936570144188122990890249
473,1.7750385664064460055618941417268
474,1.7754664725366501289027054486681
475,1.7758935164502162902792117771760
476,1.7763197025409300197020611268719
477,1.7767450351944521401557910656082
478,1.7771695187890155032766549042593
479,1.7775931576961389346137687790076
480,1.7780159562813596770198661620292
481,1.7784379189049838248249958032909
482,1.7788590499228593101345362817079
483,1.7792793536871678675880295297923
484,1.7796988345472399008854511760055
485,1.7801174968503948922076328524602
486,1.7805353449428031681614891376214
487,1.7809523831703771684531260734416
488,1.7813686158796881842044305699326
489,1.7817840474189132421352574928105
490,1.7821986821388115284399985407583
491,1.7826125243937341054400297842516
492,1.7830255785426672219043603734512
493,1.7834378489503110047377529429855
494,1.7838493399881965455829743243472
495,1.7842600560358416082140844565841
496,1.7846700014819503561640529495892
497,1.7850791807256550710305553436684
498,1.7854875981778062305369628894565
499,1.7858952582623110159587917668949
500,1.786302165417525110557354354946
501,1.786708324097696436314101966401
502,1.787113738774471367511051065104
503,1.787518413938458167913685348602
504,1.787922354100858983408192800952
505,1.788325563795166950048841944691
506,1.788728047578938101337757483225
507,1.789129810035640135458148579420
508,1.789530855776582173455984184571
509,1.789931189442928529775467559819
510,1.790330815707807661002000582750
511,1.790729739278514983565638024160
512,1.791127964898819294031590190575
513,1.791525497351377644377452553384
514,1.791922341460266020224308125929
515,1.792318502093633337539391443533
516,1.792713984166484616829788290098
517,1.793108792643602606805329331112
518,1.793502932542618433861014583725
519,1.793896408937237493037082112994
520,1.794289226960633567725182147425
521,1.794681391809018858979702524280
522,1.795072908745405906075830796238
523,1.795463783103570431308852264394
