Eigenstate,Potential Energy
1,0.500000000028928573718902745182634857
2,0.64623093783994519531939095505623482
3,0.73633761025964970048099706018729386
4,0.79966527896956022966149898150288416
5,0.8480465772869361273698446431623953
6,0.8870659999670086925720393363471359
7,0.9197208284482130808090967861698890
8,0.9477838491076387193476223412722506
9,0.9723835609516519891028676233769357
10,0.9942802181288825323219879636223796
11,1.0140093907804104924615173876056185
12,1.0319621742108971901397732887204545
13,1.0484326984861764011120815822072478
14,1.0636476612894155848281649178209172
15,1.0777854437353005881394661597571927
16,1.090988915240480663450419423806747
17,1.103374266985072872792825058947854
18,1.115037262918861684152477799656633
19,1.126057762865276748276269020282531
20,1.136503060155329498947285833411279
21,1.146430387709310474220685966043712
22,1.155888829195529573479475135758796
23,1.164920796966840817660156678799394
24,1.173563189461064596729668230670153
25,1.181848307996914135550931034284139
26,1.189804590581583307176874707179049
27,1.197457204873322521571998797078192
28,1.204828531540478608715478967964822
29,1.211938561463446793576456955660388
30,1.218805224576495291175765029105614
31,1.225444664000484549881687702039834
32,1.231871466039603586372824959721551
33,1.238098854305598051585017310439409
34,1.244138854482418400823373406384880
35,1.250002434905021475547962390774476
36,1.255699627092579925824107082763446
37,1.261239629572269353944831173652092
38,1.266630897699384316623556239355661
39,1.271881221681685673665790224543647
40,1.276997794620060987508435648432138
41,1.281987272060829404316063926320991
42,1.286855824300029845836870104632719
43,1.291609182473544996320870559677983
44,1.296252679298819553312830963951244
45,1.300791285196361642147656805486535
46,1.305229640406080011393206361379718
47,1.309572083620033014163342903977408
48,1.313822677575579015984018838000691
49,1.317985231988255326005624490712586
50,1.32206332414959003470753898115469
51,1.32606031746958417877341904097403
52,1.32997937820525643952065770982641
53,1.33382349058419246272511820758919
54,1.33759547050447975622925796210224
55,1.34129797796893362921255206840015
56,1.34493352839144506688029009855521
57,1.34850450289608246920973316626917
58,1.35201315771478199610342819508532
59,1.35546163277670731402571707079614
60,1.35885195957133503149752952111557
61,1.36218606835775788332103966229636
62,1.36546579478439671829325799973030
63,1.36869288597607045614785561094673
64,1.37186900613906069954315403189401
65,1.37499574172927284694202754171790
66,1.37807460622374821317584497928112
67,1.38110704453151937315929284760768
68,1.38409443707604478341469770276260
69,1.38703810357814606533807493691300
70,1.38993930656544306587531259580532
71,1.39279925463168310754612657919822
72,1.39561910546706259737366547156861
73,1.39839996867858615787446094879367
74,1.40114290841768959471069354175932
75,1.40384894583072191450392240359312
76,1.40651906134643204955422549128508
77,1.40915419681330354779071595090330
78,1.41175525749841468809924469643009
79,1.41432311395845466118090816667305
80,1.41685860379258833045056048517055
81,1.41936253328601274600799216548706
82,1.42183567895228713416089866974400
83,1.42427878898182935118912368923453
84,1.42669258460334749832356823024902
85,1.42907776136441611873944476107138
86,1.43143499033689053197423761013859
87,1.43376491925239539038091252608264
88,1.43606817357270016449113672663577
89,1.43834535749941076200183293640631
90,1.44059705492706326836907052651608
91,1.44282383034338434494263507473907
92,1.44502622968019452303543855236600
93,1.44720478111816837726634058351236
94,1.44935999584842263277680368696654
95,1.45149236879368210689282998231942
96,1.45360237929157156368713880205732
97,1.45569049174239721778701725542266
98,1.45775715622360874947845624411837
99,1.45980280907297922096816589372225
100,1.46182787344239394324889858475345
101,1.46383275982401003885909342913435
102,1.46581786655042287110672498760889
103,1.46778358027036759671437126747174
104,1.46973027640137683413215623133695
105,1.47165831956072236600820339453235
106,1.47356806397587803006263878992778
107,1.47545985387566287065571314737709
108,1.47733402386314438378621201791086
109,1.47919089927131309472221754294600
110,1.48103079650247728734116126730273
111,1.48285402335226084305762853105693
112,1.48466087931903771358389560290590
113,1.48645165589958101597407946416803
114,1.48822663687165598064647036037682
115,1.48998609856424553457605014306753
116,1.49173031011604897020095859940759
117,1.49345953372286243757989206893528
118,1.49517402487440896623193134950877
119,1.49687403258115200937388060895131
120,1.49855979959160066103533521444500
121,1.50023156260057642928739204703652
122,1.50188955244889253568818341939981
123,1.50353399431486451811636745226246
124,1.50516510789805323435510519823124
125,1.50678310759561179752592424875859
126,1.50838820267159277717431255910837
127,1.50998059741955142192248750670719
128,1.51156049131875807241494345951232
129,1.51312807918432086004416989334761
130,1.51468355131150140507683723916064
131,1.51622709361449082368249168867249
132,1.51775888775989837616621798488973
133,1.51927911129519330712247824147119
134,1.52078793777232915226884411388925
135,1.52228553686676167837557143068819
136,1.52377207449206793517670320537115
137,1.52524771291036059020488440389201
138,1.52671261083867810550132172302674
139,1.52816692355152920924688294934579
140,1.52961080297975466939189662708662
141,1.53104439780586481887234973141704
142,1.53246785355600320873318933794896
143,1.53388131268867811530993064206414
144,1.53528491468039644798306150133730
145,1.53667879610833041626034968328882
146,1.53806309073013944619154045739658
147,1.53943792956106163315371563750743
148,1.54080344094839006001230771613440
149,1.54215975064343578158856215687322
150,1.54350698187108111628695576671538
151,1.54484525539701915911238244391369
152,1.54617468959276981522221411373748
153,1.54749540049856130368173874048534
154,1.54880750188416103063940147047883
155,1.55011110530773406788863666441494
156,1.55140632017280710315296927704561
157,1.55269325378340890867087107667118
158,1.55397201139745914615465384945366
159,1.5552426962784691809295384547401
160,1.5565054097456212427632957721125
161,1.5577602512222844294782274793426
162,1.5590073182830270144176332678244
163,1.5602467066991799110366726117219
164,1.5614785104830059311835516925609
165,1.5627028219305234372593378002197
166,1.5639197316630349038158337234820
167,1.5651293286674076208817673362573
168,1.5663317003351492279015935547056
169,1.5675269325003231403481132751279
170,1.5687151094763436120955501517177
171,1.5698963140916906279844008142437
172,1.5710706277245824932068910271633
173,1.5722381303366415218143657604002
174,1.5733989005055886678314499925928
175,1.5745530154570010838806039794073
176,1.5757005510951623136406428166392
177,1.5768415820330383786473342874370
178,1.5779761816214089138029309682141
179,1.5791044219771797965111330102344
180,1.5802263740109082158069926163518
181,1.5813421074535628300385409426290
182,1.5824516908825467084560433832977
183,1.5835551917470061059534203124877
184,1.5846526763924493124683222905465
185,1.5857442100846973851346842015547
186,1.5868298570331877317772262332880
187,1.5879096804136543462158926442711
188,1.5889837423902001316644354532687
189,1.5900521041367850432811175717699
190,1.5911148258581457009159717642563
191,1.5921719668101656945729852446269
192,1.5932235853197129647561520422801
193,1.5942697388039625615124350237491
194,1.5953104837892181229191027480599
195,1.5963458759292500053381033623098
196,1.5973759700231637573009976619340
197,1.5984008200328133123085464673814
198,1.5994204790997730624867021281264
199,1.6004349995618816469154980845315
200,1.6014444329693713947924584091476
201,1.6024488301005943998101255698419
202,1.6034482409773586018600360215332
203,1.6044427148798845307457170446877
204,1.6054323003613943267672472347770
205,1.6064170452623430034900926037213
206,1.6073969967243049713960924114265
207,1.6083722012035216930428395984822
208,1.6093427044841246911370139367674
209,1.6103085516910396523500824490247
210,1.6112697873025831224762617644832
211,1.6122264551627591518900650599696
212,1.6131785984932661184263926943901
213,1.6141262599052181055720213786506
214,1.6150694814105958116529092278391
215,1.6160083044334261962429275852178
216,1.6169427698207048182454645929490
217,1.6178729178530648246841897591216
218,1.6187987882552015626468671223904
219,1.6197204202060560873120019627325
220,1.6206378523487700741798904004765
221,1.6215511228004100377915506045218
222,1.6224602691614780542946245338288
223,1.6233653285252025486808510689341
224,1.6242663374866242059867625956818
225,1.6251633321514795629934147443069
226,1.6260563481448858183591517399108
227,1.6269454206198355040250682870950
228,1.6278305842655028280856195574753
229,1.6287118733153688412606500762145
230,1.6295893215551701131984472534175
231,1.6304629623306727078651239395780
232,1.6313328285552818669262233497176
233,1.6321989527174823866095778609711
234,1.6330613668881258341001982325395
235,1.6339201027275577745515434964071
236,1.6347751914925947074658896036682
237,1.6356266640433543325549458335083
238,1.6364745508499408760754525937520
239,1.6373188819989909132031400923627
240,1.6381596872000818398450199163630
241,1.6389969957920072752208772289945
242,1.6398308367489222511461298098187
243,1.6406612386863622187708841257252
244,1.6414882298671375609923960551623
245,1.6423118382071079836326701266920
246,1.6431320912808393039295391904990
247,1.6439490163271440181070036942475
248,1.6447626402545132285593501438890
249,1.6455729896464348991446945675545
250,1.6463800907666088226885391864382
251,1.6471839695640562001044179095008
252,1.6479846516781266290262772580150
253,1.6487821624434075735507471716812
254,1.6495765268945359713412669917423
255,1.6503677697709158575182865726985
256,1.6511559155213420900974285334192
257,1.6519409883085365677144362538983
258,1.6527230120135933836908287975359
259,1.6535020102403397192854740123193
260,1.6542780063196128618312365011974
261,1.6550510233134536608090655731190
262,1.6558210840192211465858472695863
263,1.6565882109736271616980364969136
264,1.6573524264566964548335803085770
265,1.6581137524956507620394423886727
266,1.6588722108687190421864643527868
267,1.6596278231088770792233106700266
268,1.6603806105075164842179977416923
269,1.6611305941180473663854452418337
270,1.6618777947594303965249562832299
271,1.6626222330196475461031800967960
272,1.6633639292591054808261351957568
273,1.6641029036139790510935192740228
274,1.6648391759994920876322103864180
275,1.6655727661131393771671251386831
276,1.6663036934378480957607526853812
277,1.6670319772450861831138707047994
278,1.6677576365979094117540058629053
279,1.6684806903539586535586411892431
280,1.6692011571683994364614905025022
281,1.6699190554968116801478561549392
282,1.6706344035980271069894343357991
283,1.6713472195369175406477958236505
284,1.6720575211871312488640369051604
285,1.6727653262337841376782209879589
286,1.6734706521761018218057983081424
287,1.6741735163300176304451795480396
288,1.6748739358307229502750189490848
289,1.6755719276351745536876863713100
290,1.6762675085245596447690909894163
291,1.6769606951067164639477457591100
292,1.6776515038185133362020340960091
293,1.6783399509281900685830076744154
294,1.6790260525376567339500510542366
295,1.6797098245847519280465399870232
296,1.6803912828454680854586144321029
297,1.6810704429361337861641455749395
298,1.6817473203155623694059512031595
299,1.6824219302871636577271049844740
300,1.6830942880010205417545179132838
301,1.6837644084559308371481536441809
302,1.6844323065014165066290405994832
303,1.6850979968396974201948655231856
304,1.6857614940276332310324043217925
305,1.6864228124786347956337474452501
306,1.6870819664645444013156846862399
307,1.6877389701174819830959174864866
308,1.6883938374316648083546543996554
309,1.6890465822651967185472606784821
310,1.6896972183418272631142252273577
311,1.6903457592526843204915172742123
312,1.6909922184579777193541581805391
313,1.6916366092886752528416851596553
314,1.6922789449481528900396844204292
315,1.6929192385138185043604535053752
316,1.6935575029387104944653833767960
317,1.6941937510530688363341075825724
318,1.6948279955658839177260268439175
319,1.6954602490664202965966224374277
320,1.6960905240257153847271657637824
321,1.6967188327980569755027218794931
322,1.6973451876224357302701861209600
323,1.6979696006239761373156655720354
324,1.6985920838153449206018467949270
325,1.6992126490981386602467470127154
326,1.6998313082642488619712310246310
327,1.7004480729972072962713321774745
328,1.7010629548735087965109139258664
329,1.7016759653639164907938082858483
330,1.7022871158347458992825117113884
331,1.7028964175491293355399527951332
332,1.7035038816682616731197727632538
333,1.7041095192526278559429289972193
334,1.7047133412632103364675392150095
335,1.7053153585626807565671807450143
336,1.7059155819165719291524096361105
337,1.7065140219944329927644120397244
338,1.7071106893709687979758586263178
339,1.7077055945271595900888145162606
340,1.7082987478513670794531674636293
341,1.7088901596404226129663613671140
342,1.7094798401006999438866973308853
343,1.7100677993491722377325953994281
344,1.7106540474144533079581228355558
345,1.7112385942378249007220518922885
346,1.7118214496742475035286132535222
347,1.7124026234933582430816765831377
348,1.7129821253804526840601382575425
349,1.7135599649374540737216437361502
350,1.7141361516838675746597386077064
351,1.7147106950577215733009754194831
352,1.7152836044164957464915085139686
353,1.7158548890380351705350079173168
354,1.7164245581214518871429155127052
355,1.7169926207880142915649115336282
356,1.7175590860820225526732860885415
357,1.7181239629716733040306659988997
358,1.7186872603499128499335019322577
359,1.7192489870352746315620051918504
360,1.7198091517727098911474254773631
361,1.7203677632344032790179663715390
362,1.7209248300205798851159702456669
363,1.7214803606602982905928633888878
364,1.7220343636122346634681593301430
365,1.7225868472654561347145210658500
366,1.7231378199401823324313131635685
367,1.7236872898885379661123912167530
368,1.7242352652952932497314044363240
369,1.7247817542785967961852302449223
370,1.7253267648906966962662316604454
371,1.7258703051186526354683422214483
372,1.7264123828850380051023677615348
373,1.7269530060486319744321101637980
374,1.7274921824051058323076958456662
375,1.7280299196876942898622813893115
376,1.7285662255678632004849700450512
377,1.7291011076559654862774719141340
378,1.7296345735018884384028328255244
379,1.7301666305956942311255418212807
380,1.7306972863682504063049144901874
381,1.7312265481918532037749045379284
382,1.7317544233808408557778095839445
383,1.7322809191922015201105555013158
384,1.7328060428261708156821142927795
385,1.7333298014268225817337096363790
386,1.7338522020826535193715391101433
387,1.7343732518271574647448355181471
388,1.7348929576393932306636245148460
389,1.7354113264445466913371095122306
390,1.7359283651144842993334508387991
391,1.7364440804682983516958124096359
392,1.7369584792728476135854939845128
393,1.7374715682432907729318177659062
394,1.7379833540436113071788138564255
395,1.7384938432871366189939326670623
396,1.7390030425370510917996174989870
397,1.7395109583069026950270429022506
398,1.7400175970611031472199555520462
399,1.7405229652154202027709937528095
400,1.7410270691374663622407591311230
401,1.7415299151471800551715861823386
402,1.7420315095173000406041284237196
403,1.7425318584738358460288625022948
404,1.7430309681965321378543467187878
405,1.7435288448193244888294966889906
406,1.7440254944307926514465602166338
407,1.7445209230746084540371321510688
408,1.7450151367499758227472011858988
409,1.7455081414120657904608651875061
410,1.7459999429724490071431171135251
411,1.7464905472995200116122995552431
412,1.7469799602189168473236734329846
413,1.7474681875139371012168326886759
414,1.7479552349259467894645923212667
415,1.7484411081547863740789154156199
416,1.7489258128591703399999201702653
417,1.7494093546570831811476849212546
418,1.7498917391261689586661734893090
419,1.7503729718041187098646397752504
420,1.7508530581890506897714288746634
421,1.7513320037398873974776447137177
422,1.7518098138767286688667173565682
423,1.7522864939812186718637103675680
424,1.7527620493969104179223325807270
425,1.7532364854296241691035817168782
426,1.7537098073478033475794856488461
427,1.7541820203828654321848595604377
428,1.7546531297295478556985216123167
429,1.7551231405462528152341858174150
430,1.7555920579553838578399013600557
431,1.7560598870436817449526023019119
432,1.7565266328625567452150539580139
433,1.7569923004284126935441926305282
434,1.7574568947229739143798461967481
435,1.7579204206936028327804760167656
436,1.7583828832536161743474255481174
437,1.7588442872825979153388717873432
438,1.7593046376267079650287292604400
439,1.7597639390989872616063209244956
440,1.7602221964796603528200569426381
441,1.7606794145164326212092585452290
442,1.7611355979247857175603455842624
443,1.7615907513882708502725500479691
444,1.7620448795587945499942693213852
445,1.7624979870569062401781426152865
446,1.7629500784720786378933402418377
447,1.7634011583629881540525542908374
448,1.7638512312577885112441902374414
449,1.7643003016543854196627122301379
450,1.7647483740207044635670592579677
451,1.7651954527949597013489193566805
452,1.7656415423859158205476589616071
453,1.7660866471731495908709837716026
454,1.7665307715073070041579426182159
455,1.7669739197103597251442282526007
456,1.7674160960758561500153215967916
457,1.7678573048691717684424514821791
458,1.7682975503277552249837838597748
459,1.7687368366613725937629545652937
460,1.7691751680523495087545421502814
461,1.7696125486558089993871144998950
462,1.7700489825999082445014477118359
463,1.7704844739860728484202359824278
464,1.7709190268892268000221770301064
465,1.7713526453580220835408956261785
466,1.7717853334150650717726673000998
467,1.7722170950571389821939681748361
468,1.7726479342554274116160603380718
469,1.7730778549557314260589817477402
470,1.7735068610786877303711226737586
471,1.7739349565199821846865698402591
472,1.7743621451505629653178660320749
473,1.7747884308168487209712276377505
474,1.7752138173409392282632678841434
475,1.7756383085208174692792222660690
476,1.7760619081305556449623570916453
477,1.7764846199205154573158471512976
478,1.7769064476175473363901408687429
479,1.7773273949251875014227281509934
480,1.7777474655238532506960122541033
481,1.7781666630710350309702797677590
482,1.7785849912014888552630151915303
483,1.7790024535274244489528686892340
484,1.7794190536386919439449546394254
485,1.7798347951029685977560975241690
486,1.7802496814659401222929916818289
487,1.7806637162514834710868477258248
488,1.7810769029618456814505680569635
489,1.7814892450778219996376415028755
490,1.7819007460589311520267305574278
491,1.7823114093435898965099696674231
492,1.7827212383492854421659603233993
493,1.7831302364727457121203590566575
494,1.7835384070901085435224145923033
495,1.7839457535570880170232546406780
496,1.7843522792091411600638411728713
497,1.7847579873616307093774023123449
498,1.7851628813099878778433236616386
499,1.7855669643298726228940303943456
500,1.785970239677333546825012550221
501,1.786372710588963174897009970694
502,1.786774380282056066254955382236
503,1.787175251954761225634350429367
504,1.787575328786236659530898757847
505,1.787974613936798924135590077906
506,1.788373110548073394955947488549
507,1.788770821743143105978351035627
508,1.789167750626695798159556760459
509,1.789563900285167407957608736054
510,1.789959273786888048960216049271
511,1.790353874182223717504844054267
512,1.790747704503717622303229707797
513,1.791140767766229753621345725845
514,1.791533066967075368297623267156
515,1.791924605086162764711582160353
516,1.792315385086128557911439374031
517,1.792705409912471529509104461647
518,1.793094682493686837599427439139
519,1.793483205741397368521060029765
520,1.793870982550485087334630227238
521,1.794258015799219182121764693077
522,1.794644308349385278180391490126
523,1.795029863046412159150302465492
