Eigenstate,Potential Energy
1,0.500000000069916333920559386765122805
2,0.64623093810749263110387314227137712
3,0.73633761104555188560319447705402765
4,0.79966528060651382097077567160041098
5,0.8480465801224947640922100881415680
6,0.8870660043548213151859712095665044
7,0.9197208347447971889301918804335492
8,0.9477838576710360990454101931567327
9,0.9723835721408049223098743321446388
10,0.9942802323033183912496747236993868
11,1.0140094083000715091243272997398521
12,1.0319621954360442064224771195005361
13,1.0484327237773328956367523422409973
14,1.0636476910073348807127153169456378
15,1.0777854782409470469033355907151653
16,1.090988954895019665913523721780359
17,1.103374312149866517418848348988852
18,1.115037313955468321301355851511106
19,1.126057820135453158521618448592124
20,1.136503124021034938307439640794251
21,1.146430458532712066370964058547457
22,1.155888907339008693041784875531688
23,1.164920882793000215899302661498718
24,1.173563283332736092676956618362218
25,1.181848410277166744486848983023253
26,1.189804701633731712394898853959293
27,1.197457325060935819367653088657347
28,1.204828661227389273785589558157672
29,1.211938701013759824564066791846807
30,1.218805374354597505352471496059304
31,1.225444824371054002868960295290779
32,1.231871637367619098020077773040282
33,1.238099036956348823101279662403866
34,1.244139048821513711324310800320597
35,1.250002641298400448562389920733081
36,1.255699845906521358171729607436853
37,1.261239861173401600872870986784200
38,1.266631142454695228264973050100824
39,1.271881479958532578824075953117402
40,1.276998066786180721534678953694745
41,1.281987558484348378461918748205923
42,1.286856125349474155972206118115934
43,1.291609498517850569320175387960960
44,1.296253010707342329757629039958818
45,1.300791632338887794277474801542109
46,1.305230003652836195475900253272964
47,1.309572463341696656655487496782059
48,1.313823074143288633020762063470164
49,1.317985645773620875902220725096727
50,1.32206375552470330327631673614638
51,1.32606076680702919736391905465786
52,1.32997984587811993577982406967679
53,1.33382397696607434415127793535855
54,1.33759597596950362666026300547458
55,1.34129850289175733844626415901321
56,1.34493407314727129367613928463009
57,1.34850506786066933796427680146424
58,1.35201374326445372753201298322609
59,1.35546223928836491021655792768267
60,1.35885258742246699573531175066260
61,1.36218671792645097510433383661447
62,1.36546646644934674399458007237881
63,1.36869358011659309578711665737121
64,1.37186972313510237016512242929699
65,1.37499648196142160310656605391854
66,1.37807537007324468508610490054319
67,1.38110783238026774296810991149011
68,1.38409524930662380026340676230090
69,1.38703894057382009969490660353040
70,1.38994016871017320375226700942363
71,1.39280014231013828518474872861558
72,1.39562001906463077700032731284988
73,1.39840090858138554513591979302442
74,1.40114387501257989840996091447009
75,1.40384993950531564926550467121730
76,1.40652008248910588205624796247655
77,1.40915524581320968720974042619173
78,1.41175633474549232142150435446345
79,1.41432421984344143404137398238916
80,1.41685973870703187416856242505981
81,1.41936369762228225149556047064737
82,1.42183687310358497338699551740578
83,1.42428001334220274688990658142671
84,1.42669383956770024265566004455697
85,1.42907904732852034158004940178864
86,1.43143630769739851957845314855642
87,1.43376626840685145511336992390697
88,1.43606955491955256635565392949209
89,1.43834677143802368269920229219649
90,1.44059850185772883861975682882940
91,1.44282531066733472581762624050788
92,1.44502774379961404204501599967425
93,1.44720632943620571996303138881090
94,1.44936157876920309063535485166296
95,1.45149398672231988223664349082482
96,1.45360403263418213243704839260172
97,1.45569218090610975081513709725074
98,1.45775888161657859335627769686883
99,1.45980457110440043890499705066205
100,1.46182967252251191702337106378178
101,1.46383459636413413255337983618186
102,1.46581974096293915745991014406617
103,1.46778549296875164691832453742450
104,1.46973222780020657190058305289336
105,1.47166031007569098675623160483551
106,1.47357009402380698604172322233764
107,1.47546192387451492289575163139356
108,1.47733613423203672170421080103335
109,1.47919305043053052426413538088037
110,1.48103298887348548853114303498668
111,1.48285625735771969783631567303205
112,1.48466315538281470482526077248040
113,1.48645397444676469857801518963805
114,1.48822899832856952561213615386241
115,1.48998850335846034696901708159163
116,1.49173275867639838193516852853035
117,1.49346202647945547594377724849284
118,1.49517656225864419909608834616419
119,1.49687661502573146802616535022417
120,1.49856242753054384159789572644450
121,1.50023423646923437367844311159059
122,1.50189227268396199310034257634255
123,1.50353676135440218799189081676997
124,1.50516792218149009184755925536699
125,1.50678596956376750244678307052495
126,1.50839111276669016743213786732597
127,1.50998355608523109247166740603352
128,1.51156349900009304074045658951657
129,1.51313113632783131921836460516446
130,1.51468665836516956543377337588116
131,1.51623025102777584416535014639548
132,1.51776209598375138641338161916969
133,1.51928237078207252136748580464273
134,1.52079124897621507614019330134983
135,1.52228890024317240969240020780765
136,1.52377549049807455984691554134713
137,1.52525118200460267434291609629365
138,1.52671613348137928489365388093159
139,1.52817050020451287730427061369232
140,1.52961443410645976473828809201645
141,1.53104808387136171373182190200120
142,1.53247159502700969928758233808955
143,1.53388511003357551521142177343160
144,1.53528876836924578621756566856436
145,1.53668270661288874056958677221631
146,1.53806705852387623327349854198926
147,1.53944195511917530687369453467622
148,1.54080752474782461886872933942336
149,1.54216389316289753669066886628506
150,1.54351118359105554111364522222679
151,1.54484951679978785233510535057094
152,1.54617901116242757788712123194536
153,1.54749978272103333206002854910297
154,1.54881194524722022606795764954988
155,1.55011561030101846493667424515878
156,1.55141088728783741746444707766605
157,1.55269788351360620584601500184589
158,1.55397670423816263304839275644161
159,1.5552474527269541207587781742307
160,1.5565102303011169954298225305801
161,1.5577651363859926185285745438758
162,1.5590122685581398220761892997288
163,1.5602517225908985027635497066250
164,1.5614835924985590112241308239361
165,1.5627079705791859366680839772803
166,1.5639249474561468024524927474962
167,1.5651346121183929048942882314306
168,1.5663370519595349842265397604503
169,1.5675323528157587897752615742042
170,1.5687205990026202824608097816007
171,1.5699018733507606690713604139882
172,1.5710762572405791349550837239862
173,1.5722438306358986774493251796200
174,1.5734046721166608835495590845217
175,1.5745588589106836367394164533182
176,1.5757064669245114593237199048127
177,1.5768475707733917507907952955798
178,1.5779822438104060765896927518994
179,1.5791105581547829522577327598998
180,1.5802325847194230692870424734447
181,1.5813483932376596113063032089302
182,1.5824580522892813559532211376542
183,1.5835616293258416117024298015261
184,1.5846591906952772311754400447545
185,1.5857508016658595090472072789769
186,1.5868365264494979331592175877147
187,1.5879164282244205893286608221839
188,1.5889905691572466561590868092483
189,1.5900590104244747209323383665729
190,1.5911218122334025676480239300232
191,1.5921790338424976597515584083808
192,1.5932307335812346997423232485804
193,1.5942769688694185694975642180136
194,1.5953177962360059920832822862456
195,1.5963532713374438473983550714935
196,1.5973834489755378335388892056927
197,1.5984083831148658491920505276101
198,1.5994281268997502590247185542959
199,1.6004427326708018759095419589839
200,1.6014522519810496001745861957275
201,1.6024567356116666922819816155604
202,1.6034562335873070550748719126793
203,1.6044507951910621803000195377888
204,1.6054404689790503742973798103665
205,1.6064253027946482281947112827593
206,1.6074053437823773513343040157673
207,1.6083806384014522385850086005116
208,1.6093512324390034929737805089180
209,1.6103171710229821464945683582722
210,1.6112784986347565747226610551483
211,1.6122352591214093642220244928958
212,1.6131874957077443598989318247011
213,1.6141352510080082702207146518348
214,1.6150785670373418060152111317199
215,1.6160174852229595591078411812325
216,1.6169520464150725752800166906707
217,1.6178822908975575806168796285346
218,1.6188082583983818337211149908419
219,1.6197299880997868767568926984181
220,1.6206475186482436934776534884113
221,1.6215608881641771765566715291178
222,1.6224701342514771016137301697429
223,1.6233752940067891687979041511749
224,1.6242764040286011712536442045113
225,1.6251735004261268470426410630674
226,1.6260666188279909524921903208096
227,1.6269557943907241998464342425955
228,1.6278410618070698694521028509310
229,1.6287224553141092486523454763427
230,1.6296000087012105836579412224856
231,1.6304737553178033336906866680584
232,1.6313437280809881363447084204519
233,1.6322099594829774696964178049454
234,1.6330724815983831572541803513919
235,1.6339313260913438868749581603622
236,1.6347865242225024424428870551534
237,1.6356381068558362684643920758328
238,1.6364861044653430986185658917736
239,1.6373305471415870838702546979978
240,1.6381714645981075735922451138023
241,1.6390088861776948310722419509062
242,1.6398428408585355393838141321960
243,1.6406733572602321284239602319152
244,1.6415004636496976113817890578857
245,1.6423241879469303037794320657461
246,1.6431445577306709436830150284709
247,1.6439616002439435948992282410113
248,1.6447753423994879137439492389772
249,1.6455858107850777479295033036338
250,1.6463930316687364517243063253738
251,1.6471970310038468168454221389065
252,1.6479978344341584170327128547016
253,1.6487954672986974379574807567691
254,1.6495899546365786487746514312861
255,1.6503813211917233947980673399763
256,1.6511695914174836961194635860252
257,1.6519547894811788429681444145293
258,1.6527369392685409319245757480284
259,1.6535160643880761458937484760406
260,1.6542921881753421635988757498186
261,1.6550653336971420117097368822367
262,1.6558355237556390843953516090760
263,1.6566027808923921802472672913513
264,1.6573671273923160067915825851435
265,1.6581285852875656771821193426967
266,1.6588871763613473661755193044874
267,1.6596429221516583379864541673874
268,1.6603958439549563790926536362417
269,1.6611459628297629052574829209012
270,1.6618932996001954662659209106557
271,1.6626378748594389316826555455484
272,1.6633797089731493365494263727657
273,1.6641188220827978294899333707010
274,1.6648552341089519315959523914785
275,1.6655889647544979810296754229595
276,1.6663200335078030410527797575964
277,1.6670484596458237548549571655119
278,1.6677742622371539011891180480511
279,1.6684974601450221533434342912021
280,1.6692180720302321343822921462368
281,1.6699361163540526575475622927353
282,1.6706516113810556481568978075778
283,1.6713645751819049595168049252488
284,1.6720750256360932394572668175157
285,1.6727829804346336548225632249261
286,1.6734884570827024987376769579592
287,1.6741914729022377400189695967871
288,1.6748920450344899165825776353825
289,1.6755901904425300209943110527511
290,1.6762859259137151107699284546000
291,1.6769792680621094844488987025575
292,1.6776702333308643084324616023151
293,1.6783588379945596004469927273690
294,1.6790450981615036066355899740721
295,1.6797290297759916595111175901517
296,1.6804106486205321024241326786330
297,1.6810899703180292123620782280421
298,1.6817670103339324379270791832968
299,1.6824417839783487554445523927612
300,1.6831143064081198939044207919606
301,1.6837845926288648402716490878870
302,1.6844526574969897181983280609297
303,1.6851185157216622133692181810964
304,1.6857821818667541231139991982084
305,1.6864436703527534589195448709433
306,1.6871029954586453651702561988485
307,1.6877601713237590362009787927792
308,1.6884152119495881102239088469888
309,1.6890681312015806295303013185643
310,1.6897189428108989022509338276615
311,1.6903676603761528607184628307430
312,1.6910142973651044297067979624295
313,1.6916588671163442974404139609690
314,1.6923013828409428937956033229744
315,1.6929418576240748954863946175652
316,1.6935803044266186340301974142540
317,1.6942167360867279452529284859928
318,1.6948511653213818117371880059705
319,1.6954836047279089399365441702666
320,1.6961140667854872733777447274120
321,1.6967425638566223610508807081389
322,1.6973691081886006955906928310865
323,1.6979937119149215354576972578066
324,1.6986163870567061884361490841853
325,1.6992371455240865186086357620218
326,1.6998559991175709142153129017683
327,1.7004729595293905373381473337082
328,1.7010880383448230447942928071187
329,1.7017012470434987552886970511601
330,1.7023125970006856946862791433008
331,1.7029220994885549581802697129961
332,1.7035297656774274507818252105829
333,1.7041356066370023848751873399194
334,1.7047396333375657190532796872861
335,1.7053418566511828533618159462155
336,1.7059422873528716392040023985536
337,1.7065409361217585763536510232299
338,1.7071378135422192561374561286595
339,1.7077329301049991155037579576941
340,1.7083262962083205935345423524095
341,1.7089179221589724041984151914174
342,1.7095078181733834227174470726308
343,1.7100959943786808235663062714375
344,1.7106824608137324640443031032386
345,1.7112672274301753329921096353721
346,1.7118503040934275396913787851860
347,1.7124317005836874085518986039784
348,1.7130114265969164915653348140658
349,1.7135894917458100437048534109957
350,1.7141659055607525038771754858279
351,1.7147406774907600692961562772546
352,1.7153138169044100459181211197694
353,1.7158853330907562595971356417266
354,1.7164552352602319427205475917304
355,1.7170235325455404618993535795151
356,1.7175902340025320968017664698396
357,1.7181553486110701094746130567787
358,1.7187188852758853484712512909612
359,1.7192808528274151332473094937009
360,1.7198412600226353570703794238867
361,1.7204001155458775536505737313469
362,1.7209574280096374094321370998656
363,1.7215132059553693175112932045410
364,1.7220674578542719975287012315752
365,1.7226201921080634182699701318764
366,1.7231714170497439010146813690011
367,1.7237211409443502960218319103136
368,1.7242693719896980212713738585255
369,1.7248161183171155964019313040905
370,1.7253613879921673854206311817755
371,1.7259051890153674019090248867601
372,1.7264475293228831336242350454428
373,1.7269884167872293536380983771056
374,1.7275278592179562269331186201568
375,1.7280658643623224044715803821206
376,1.7286024399059645614071709062519
377,1.7291375934735551691187217490008
378,1.7296713326294516689476669119191
379,1.7302036648783388879271783982834
380,1.7307345976658614537610001125277
381,1.7312641383792490849935288090083
382,1.7317922943479318750520742816457
383,1.7323190728441502453495776360418
384,1.7328444810835545316846893867304
385,1.7333685262257978257380478316982
386,1.7338912153751227308751218995619
387,1.7344125555809377821608685170839
388,1.7349325538383874679628183835002
389,1.7354512170889165284180096120417
390,1.7359685522208257204738781083062
391,1.7364845660698193670569898921687
392,1.7369992654195482993711450774646
393,1.7375126570021456664554457891351
394,1.7380247474987541937450624772614
395,1.7385355435400477481795758164778
396,1.7390450517067468614015231461601
397,1.7395532785301278416495079090433
398,1.7400602304925254831881844188348
399,1.7405659140278279397895133980301
400,1.7410703355219680629629923519433
401,1.7415735013134072546075620492836
402,1.7420754176936125800751493411836
403,1.7425760909075299631695865019113
404,1.7430755271540513569782073183224
405,1.7435737325864733568019556678220
406,1.7440707133129533650589493588397
407,1.7445664753969604257378421953753
408,1.7450610248577182324749926158807
409,1.7455543676706431722243936559446
410,1.7460465097677799199192365319073
411,1.7465374570382288450729487367134
412,1.7470272153285688138703006329655
413,1.7475157904432764667850320588108
414,1.7480031881451383965674610286732
415,1.7484894141556605115872349668705
416,1.7489744741554710152070567706059
417,1.7494583737847198507454796917397
418,1.7499411186434717763536500331540
419,1.7504227142920973494364122432227
420,1.7509031662516568036806399497469
421,1.7513824800042807720401254333520
422,1.7518606609935471384763305366553
423,1.7523377146248518558153865132639
424,1.7528136462657773446922240148875
425,1.7532884612464548542220026655515
426,1.7537621648599243925426204851776
427,1.7542347623624897131959253485700
428,1.7547062589740683723999466514836
429,1.7551766598785407709989021445421
430,1.7556459702240910446246813504088
431,1.7561141951235473071876597460162
432,1.7565813396547183987093614560901
433,1.7570474088607224769196672279723
434,1.7575124077503185521296193494632
435,1.7579763412982287906495669747243
436,1.7584392144454594893906895610988
437,1.7589010320996188846920023291404
438,1.7593617991352307791603661572879
439,1.7598215203940446695838491953668
440,1.7602802006853434489343720532081
441,1.7607378447862458441533332570552
442,1.7611944574420071552570699325988
443,1.7616500433663179453863645654086
444,1.7621046072415953031511975106679
445,1.7625581537192760099559127653365
446,1.7630106874201026387264544648969
447,1.7634622129344097553366932404527
448,1.7639127348224034431089658103691
449,1.7643622576144419931247564930450
450,1.7648107858113099150693487738578
451,1.7652583238844927740471171614515
452,1.7657048762764456971092544051791
453,1.7661504474008612950264998661970
454,1.7665950416429333907703666578505
455,1.7670386633596201811585420176877
456,1.7674813168799021313022347071991
457,1.7679230065050393002786889585566
458,1.7683637365088244967014996405049
459,1.7688035111378347809605277072672
460,1.7692423346116809593958754298510
461,1.7696802111232529231270160580177
462,1.7701171448389640476533262557110
463,1.7705531398989932601504182117922
464,1.7709882004175229385938803035904
465,1.7714223304829766147601392932099
466,1.7718555341582536151986759078547
467,1.7722878154809599241765024667829
468,1.7727191784636402878107934904459
469,1.7731496270940040397593586670817
470,1.7735791653351521767680229298647
471,1.7740077971257999550491779240706
472,1.7744355263804993090685795305875
473,1.7748623569898564477065565670246
474,1.7752882928207521359710529555189
475,1.7757133377165535892995443678309
476,1.7761374954973304986595635611689
477,1.7765607699600655239606335775095
478,1.7769831648788639364112103909126
479,1.7774046840051613039611735250178
480,1.7778253310679296193121196818970
481,1.7782451097738804263907248545288
482,1.7786640238076685192348631940797
483,1.7790820768320915985913773564764
484,1.7794992724882887114295851561386
485,1.7799156143959389558365587040672
486,1.7803311061534550418457978392769
487,1.7807457513381785628825827321738
488,1.7811595535065715803898142957626
489,1.7815725161944077559728206767425
490,1.7819846429169609005239750108995
491,1.7823959371691930811214353504106
492,1.7828064024259408805867697615204
493,1.7832160421420997915969275760154
494,1.7836248597528078464698938122481
495,1.7840328586736266824107829324065
496,1.7844400423007232941284066968093
497,1.7848464140110481670551609304776
498,1.7852519771625137443555374999135
499,1.7856567350941707332086748276296
500,1.786060691126384389230669926503
501,1.786463848561006533702142855058
502,1.786866210681550767644885899817
503,1.787267780753362360005417795408
504,1.787668562023790663190010421783
505,1.788068557722356913086220918701
506,1.788467771060923153635208529055
507,1.788866205233860144240092263700
508,1.789263863418213900545245883326
509,1.789660748773869110369217456170
510,1.790056864443715489245334872694
511,1.790452213553810318215403391229
512,1.790846799213541075981737402819
513,1.791240624515786793449015228234
514,1.791633692537078819778278419036
515,1.792026006337761387313913811249
516,1.792417568962150199242030190729
517,1.792808383438690128663477476286
518,1.793198452780113828844921059646
519,1.793587779983598051429530707683
520,1.793976368030920544911205152196
521,1.794364219888614344389388356840
522,1.794751338508123745097725479511
523,1.795137726825958413673627180293
