Eigenstate,Potential Energy
1,0.500000000033844220004517476577140369
2,0.64623093787203199325346308833175332
3,0.73633761035390217477834558218276324
4,0.79966527916587764104153318454114165
5,0.8480465776269986526218685396696562
6,0.8870660004932263378412521147584594
7,0.9197208292033383976836650317540407
8,0.9477838501346052844659149819861383
9,0.9723835622934992905908434601003829
10,0.9942802198287178404194993713958452
11,1.0140093928813881406327869419864486
12,1.0319621767562067283194859886827438
13,1.0484327015190355789928523418291008
14,1.0636476648530661148627175491119069
15,1.0777854478730055855117997945247777
16,1.090988919995523139458087330712685
17,1.103374272400754913483892362357893
18,1.115037269038504088537847432614889
19,1.126057769732218983151752587066946
20,1.136503067812929877093241553785456
21,1.146430396200946493594814809454325
22,1.155888838564598374689908891878677
23,1.164920807256759729866154541751678
24,1.173563200715271750714901976283719
25,1.181848320258869128580042574958195
26,1.189804603894767908322248642089744
27,1.197457219281241409078483737289861
28,1.204828547086660133038323413838456
29,1.211938578191443761232755334956120
30,1.218805242529885765659670829027326
31,1.225444683222872666722200596845163
32,1.231871486574620380038397969963900
33,1.238098876196902292416301554333949
34,1.244138877773697440542851478032582
35,1.250002459639992100180802956942027
36,1.255699653314989215088408251978661
37,1.261239657325895546346287496433673
38,1.266630927028037679630358389483473
39,1.271881252629209378452426517249528
40,1.276997827230331987848143239781775
41,1.281987306377759319275634699193533
42,1.286855860367565845987933697173500
43,1.291609220335670693231424328343641
44,1.296252718999555892123782393493628
45,1.300791326779767797073180509521601
46,1.305229683916254284012127569944941
47,1.309572129101113734392545462475658
48,1.313822725071745445644935800324089
49,1.317985281543728564911804197729094
50,1.32206337580863392921566780893755
51,1.32606037127650623275245526148748
52,1.32997943420440872770422507350366
53,1.33382354881997254642132680411818
54,1.33759553102133160136988635451801
55,1.34129804081134852673026742613558
56,1.34493359360396255540840869568693
57,1.34850457052329126010411103650178
58,1.35201322780132090079054517917727
59,1.35546170536726617368487981335748
60,1.35885203471065564908858529327002
61,1.36218614609063495797200533740302
62,1.36546587515567878206496042544695
63,1.36869296903066081319506967367624
64,1.37186909192191836769385019895995
65,1.37499583028541350171822392401841
66,1.37807469759824513428131695953400
67,1.38110713876950439346087331778024
68,1.38409453422270924044533756987215
69,1.38703820367874175535107608251504
70,1.38993940966528320048028724884404
71,1.39279936077614327295830371938758
72,1.39561921470158171630911150145979
73,1.39840008104866745412466773197149
74,1.40114302396890156043081416248557
75,1.40384906460869928024968702047918
76,1.40651918339687675710326136140861
77,1.40915432218198572578466721498272
78,1.41175538623117363054370321693451
79,1.41432324610119980884074892307999
80,1.41685873939130025517880037628084
81,1.41936267238674413804684717430912
82,1.42183582160116379245417504750353
83,1.42427893522505117674557090855163
84,1.42669273448718949067125842643601
85,1.42907791493522937551169403647889
86,1.43143514764110325166798662546443
87,1.43376508033651387832890178297851
88,1.43606833848330984208960295802735
89,1.43834552628317717923582299375203
90,1.44059722763073311967785540248551
91,1.44282400701378648846808053586520
92,1.44502641036424100329651982382638
93,1.44720496586285545130336432537610
94,1.44936018470083179980924101900715
95,1.45149256180098114153501132361007
96,1.45360257650101555276638111410753
97,1.45569069320132960080912771362665
98,1.45775736197946236278583910537374
99,1.45980301917327734563615543572587
100,1.46182808793475135676620935962626
101,1.46383297875613407063864587808871
102,1.46581808997011446187343160851398
103,1.46778380822552236181676560461585
104,1.46973050893998613082513203246784
105,1.47165855673087436475440409606638
106,1.47356830582575878990041341691978
107,1.47546010045355741868185228455322
108,1.47733427521743779880201861371669
109,1.47919115545049159509182713309927
110,1.48103105755512932311132414771714
111,1.48285428932707819238853183073766
112,1.48466115026481658354093232426004
113,1.48645193186522314773080655718229
114,1.48822691790616975914937134899568
115,1.48998638471674710272203047422630
116,1.49173060143576334757886338728488
117,1.49345983025912464382770934000872
118,1.49517432667666514906167263291531
119,1.49687433969896057731650177848209
120,1.49856011207463342095842922514484
121,1.50023188049861972873873500724194
122,1.50188987581184841011859602889875
123,1.50353432319275184303575227888539
124,1.50516544234100888247583358168639
125,1.50678344765389180094816166313967
126,1.50838854839557349466829188536403
127,1.50998094885973071136304651777373
128,1.51156084852575646842414693363761
129,1.51312844220888275689812931238242
130,1.51468392020449624493326710785643
131,1.51622746842691429018597934497308
132,1.51775926854287359348859640842658
133,1.51927949809997204449603943921174
134,1.52078833065029303407060262209333
135,1.52228593586942339982126261888778
136,1.52377247967107248368345932007525
137,1.52524812431748647248215405877879
138,1.52671302852583858042994115044832
139,1.52816734757077352660661082322177
140,1.52961123338326931449829382632814
141,1.53104483464597476318419776890440
142,1.53246829688517316649220947097571
143,1.53388176255951380627496637064451
144,1.53528537114564586632135631280767
145,1.53667925922088510565909173884836
146,1.53806356054303578125320852005218
147,1.53943840612748210713935677385056
148,1.54080392432166457899727731252827
149,1.54216024087704296509582367703361
150,1.54350747901864960446347054038425
151,1.54484575951232892651471041299336
152,1.54617520072975349127784090709021
153,1.54749591871130549989329976905463
154,1.54880802722690767459937642068106
155,1.55011163783488174417265718681694
156,1.55140685993891240116048480606225
157,1.55269380084318777748234374973769
158,1.55397256580578825647508607297670
159,1.5552432580903872941886384536641
160,1.5565059790163305874432214985091
161,1.5577608280071520847403192244878
162,1.5590079026375863011001572825211
163,1.5602472986791317900962107320487
164,1.5614791101442204096532369408831
165,1.5627034293290409817977036825561
166,1.5639203468550678619206735914201
167,1.5651299517093416498439758056885
168,1.5663323312835447315746472568405
169,1.5675275714119167138093557250585
170,1.5687157564080494942761900327517
171,1.5698969691006021623456730580289
172,1.5710712908679735965405475149668
173,1.5722388016719681612462242826639
174,1.5733995800904903461074852797651
175,1.5745537033493023330156763215338
176,1.5757012473528741970106390405927
177,1.5768422867143600016061172818649
178,1.5779768947847289429063328637269
179,1.5791051436810779874307272550735
180,1.5802271043141569500172712586395
181,1.5813428464151286603616755510997
182,1.5824524385615919135492404080923
183,1.5835559482028902538245594612877
184,1.5846534416847308331062792551331
185,1.5857449842731351523415385448025
186,1.5868306401777426542902957918910
187,1.5879104725744909682082174511012
188,1.5889845436276882427132595023825
189,1.5900529145115012978945401498564
190,1.5911156454308752477088152805408
191,1.5921727956419038151836845305853
192,1.5932244234716667225973120568074
193,1.5942705863375524604485004506621
194,1.5953113407660797759653752617606
195,1.5963467424112358134762401247755
196,1.5973768460723445985069091658803
197,1.5984017057114802408894952483925
198,1.5994213744704390188252610520398
199,1.6004359046872831777189205235061
200,1.6014453479124703839468303323939
201,1.6024497549245798099396433683254
202,1.6034491757456482266925879796102
203,1.6044436596561267583869154896039
204,1.6054332552094699139859666669315
205,1.6064180102463668611194240247208
206,1.6073979719086279609547349578074
207,1.6083731866527324346827532987155
208,1.6093437002630513830241728675904
209,1.6103095578647519015862033011528
210,1.6112708039363937876702924430173
211,1.6122274823222261974892416754962
212,1.6131796362441944809176943794541
213,1.6141273083136615716658940145987
214,1.6150705405428589085621599868886
215,1.6160093743560660941706685221599
216,1.6169438506005332451971551024026
217,1.6178740095571499937198361634708
218,1.6187998909508701116904985635089
219,1.6197215339608950316367205668871
220,1.6206389772306287716878178028449
221,1.6215522588774021672091752496474
222,1.6224614165019836064051351749131
223,1.6233664871978698307162983107090
224,1.6242675075603718593038375479556
225,1.6251645136954985941581193518131
226,1.6260575412286416437665201783216
227,1.6269466253130700081815235898108
228,1.6278318006382364356825675292155
229,1.6287131014379026031694097613240
230,1.6295905614980878065175629216291
231,1.6304642141648429501526258906114
232,1.6313340923518602447504439321240
233,1.6322002285479135985536443119421
234,1.6330626548241458483564754593529
235,1.6339214028411960012436396869605
236,1.6347765038561761858372471038827
237,1.6356279887295019331643503975857
238,1.6364758879315775181410838086790
239,1.6373202315493417972382701700630
240,1.6381610492926766957298963380347
241,1.6389983705006826258566705987185
242,1.6398322241478236918381304924227
243,1.6406626388499467124899120957919
244,1.6414896428701757496644747985953
245,1.6423132641246865156088608530095
246,1.6431335301883631777891012404218
247,1.6439504683003389429485172703382
248,1.6447641053694280009362832545136
249,1.6455744679794437968030316284757
250,1.6463815823944140152661134362015
251,1.6471854745636901769526909597297
252,1.6479861701269546443173522838333
253,1.6487836944191301088338000345734
254,1.6495780724751912157143712354592
255,1.6503693290348822055830271224064
256,1.6511574885473406578656381049844
257,1.6519425751756337266380641746109
258,1.6527246128012033129876137445478
259,1.6535036250282269767347473037061
260,1.6542796351878949732162530896071
261,1.6550526663426037281836649248096
262,1.6558227412900704755454069358970
263,1.6565898825673679078363372981893
264,1.6573541124548842895690623605305
265,1.6581154529802075579962620522205
266,1.6588739259219355783176199731566
267,1.6596295528134157658651438972871
268,1.6603823549464141082671213829753
269,1.6611323533747178567912929684296
270,1.6618795689176676102930896207818
271,1.6626240221636280750065674319901
272,1.6633657334733914790234931533878
273,1.6641047229835210838560680681650
274,1.6648410106096320013822659393045
275,1.6655746160496131910338124100808
276,1.6663055587867889148606888617184
277,1.6670338580930271337664805139109
278,1.6677595330317865988436923280608
279,1.6684826024611141402576838171211
280,1.6692030850365842465305657406304
281,1.6699209992141888230325897222468
282,1.6706363632531746259343037468036
283,1.6713491952188315840507076370581
284,1.6720595129852291650973575590426
285,1.6727673342379075936044327176846
286,1.6734726764765199452183419139905
287,1.6741755570174301766677344557593
288,1.6748759929962634931544238510923
289,1.6755740013704137012188281933297
290,1.6762695989215082795922544596373
291,1.6769628022578290089616196445696
292,1.6776536278166910455381470229607
293,1.6783420918667843441899508945402
294,1.6790282105104724680388792162598
295,1.6797119996860508716507457732986
296,1.6803934751699722433655876807097
297,1.6810726525790288384772135882612
298,1.6817495473725011199992871310943
299,1.6824241748542695098584940262658
300,1.6830965501748910011037376227764
301,1.6837666883336410425518607973118
302,1.6844346041805227887858285906342
303,1.6851003124182408886173729766007
304,1.6857638276041433895261585817831
305,1.6864251641521331865855459992987
306,1.6870843363345482790774355577851
307,1.6877413582840080167531579922076
308,1.6883962439952328141719628495372
309,1.6890490073268334223860885664975
310,1.6896996620030700931217278783701
311,1.6903482216155852303628247445185
312,1.6909946996251070424732370542251
313,1.6916391093631255876097232532630
314,1.6922814640335430167031594135468
315,1.6929217767142973336547903919721
316,1.6935600603589610483933860101023
317,1.6941963277983122614019736759864
318,1.6948305917418835309634776390290
319,1.6954628647794856646911971826113
320,1.6960931593827064366065443704213
321,1.6967214879063881487027246912317
322,1.6973478625900801514297427979188
323,1.6979722955594698371440460546777
324,1.6985947988277910836673407391916
325,1.6992153842972119099398958099543
326,1.6998340637601995809997231965204
327,1.7004508489008659830476443230013
328,1.7010657512962904577982667940040
329,1.7016787824178250709796519844414
330,1.7022899536323787466532531355975
331,1.7028992762036817059350253384655
332,1.7035067612935312713471667115846
333,1.7041124199630194153429351905999
334,1.7047162631737402370159081914601
335,1.7053183017889816819131067588076
336,1.7059185465748975629918032190194
337,1.7065170082016627549531222489315
338,1.7071136972446126207923843384365
339,1.7077086241853627350606569901519
340,1.7083017994129149951660869481021
341,1.7088932332247458342803122554787
342,1.7094829358278790329873088808386
343,1.7100709173399427674521203917672
344,1.7106571877902108878048659215984
345,1.7112417571206302460622411747133
346,1.7118246351868315483700387751583
347,1.7124058317591272969137924959071
348,1.7129853565234936332101847397529
349,1.7135632190825396276926011468588
350,1.7141394289564615579205710173155
351,1.7147139955839842630057330671962
352,1.7152869283232892566091628817763
353,1.7158582364529288828780007645016
354,1.7164279291727279297877609209916
355,1.7169960156046730651642895524165
356,1.7175625047937883051650100641886
357,1.7181274057089997542550424304126
358,1.7186907272439888606763948380933
359,1.7192524782180299325474526992794
360,1.7198126673768208525096339144221
361,1.7203713033932987357892480783809
362,1.7209283948684470132734330894739
363,1.7214839503320885352128543571619
364,1.7220379782436697195448541785612
365,1.7225904869930339812051794443987
366,1.7231414849011833200979368700903
367,1.7236909802210309597358288485710
368,1.7242389811381418252817406960768
369,1.7247854957714654935387468918878
370,1.7253305321740573280667948611724
371,1.7258740983337906527384995516748
372,1.7264162021740589202160144510548
373,1.7269568515544678420692867047990
374,1.7274960542715217890187849876794
375,1.7280338180592951528769627537201
376,1.7285701505901001264088876815428
377,1.7291050594751426903280104717061
378,1.7296385522651699748428241951333
379,1.7301706364511108355620974782944
380,1.7307013194647064005290571226726
381,1.7312306086791334638259987904048
382,1.7317585114096178439247822695028
383,1.7322850349140423814515180964998
384,1.7328101863935445400716448612376
385,1.7333339729931072317569681191781
386,1.7338564018021435250923191254336
387,1.7343774798550709859648896931580
388,1.7348972141318795874389578050784
389,1.7354156115586938635067151464455
390,1.7359326790083264958257625379290
391,1.7364484233008236503870128331213
392,1.7369628512040056724944804225066
393,1.7374759694340006135459573587958
394,1.7379877846557691707151797121688
395,1.7384983034836238964105393692696
396,1.7390075324817423283815746701121
397,1.7395154781646736703834453036942
398,1.7400221469978390315375594095846
399,1.7405275453980237901818071480474
400,1.7410316797338663821719984482446
401,1.7415345563263395625564559766191
402,1.7420361814492248858446073271132
403,1.7425365613295832256122269680828
404,1.7430357021482192265371861391529
405,1.7435336100401371543146343549142
406,1.7440302910949942524904163005326
407,1.7445257513575487229368761732076
408,1.7450199968280998331702535294208
409,1.7455130334629230115903781407661
410,1.7460048671747024451276604773791
411,1.7464955038329554393188323621730
412,1.7469849492644521234079845369528
413,1.7474732092536315795369057434686
414,1.7479602895430108198778534111125
415,1.7484461958335908956763558909664
416,1.7489309337852565678448302006886
417,1.7494145090171723876006171914160
418,1.7498969271081723503920738867586
419,1.7503781935971474016324854500039
420,1.7508583139834257761718620248860
421,1.7513372937271501236984555969653
422,1.7518151382496507016817409486762
423,1.7522918529338124720054401340103
424,1.7527674431244397150253766852700
425,1.7532419141286145404206217949481
426,1.7537152712160529016883521330353
427,1.7541875196194555989216904622041
428,1.7546586645348542835681299462774
429,1.7551287111219563775660878568986
430,1.7555976645044817689752444867030
431,1.7560655297704987877651744633906
432,1.7565323119727566112863931273592
433,1.7569980161290094373313105480996
434,1.7574626472223435227324725495011
435,1.7579262102014949111824799851861
436,1.7583887099811657512767176700013
437,1.7588501514423373661581737734239
438,1.7593105394325790568403312150060
439,1.7597698787663533205219738373425
440,1.7602281742253185551182887058553
441,1.7606854305586264098726024057376
442,1.7611416524832173457044907430646
443,1.7615968446841140530020946695956
444,1.7620510118147073462393269247134
445,1.7625041584970438660887871544511
446,1.7629562893221066133900540571761
447,1.7634074088500954841535137821479
448,1.7638575216107010238128369989296
449,1.7643066321033792412419599387462
450,1.7647547447976196349894162511811
451,1.7652018641332139348365171868563
452,1.7656479945205184000389706999250
453,1.7660931403407154173365078551541
454,1.7665373059460707876919728592388
455,1.7669804956601903256436025891231
456,1.7674227137782710682845879166781
457,1.7678639645673517895873712349015
458,1.7683042522665592159846183523352
459,1.7687435810873524571440597572674
460,1.7691819552137652942955582692444
461,1.7696193788026441758472180951687
462,1.7700558559838851333577780702317
463,1.7704913908606682216496492147559
464,1.7709259875096876439844935339538
465,1.7713596499813815310522687703776
466,1.7717923823001585044863771214298
467,1.7722241884646203054385220281195
468,1.7726550724477855038696197020230
469,1.7730850381973067652728955124572
470,1.7735140896356891993845491148327
471,1.7739422306605040580102347724470
472,1.7743694651446020795959029657673
473,1.7747957969363218314641042804069
474,1.7752212298597005537304076918134
475,1.7756457677146764276733413350504
476,1.7760694142772947823837834199631
477,1.7764921732999085727115053341928
478,1.7769140485113778045168122830045
479,1.7773350436172667966343060048338
480,1.7777551623000396741495068963663
481,1.7781744082192526438860756299079
482,1.7785927850117466209126848304794
483,1.7790102962918355860885662329701
484,1.7794269456514934944242605156710
485,1.7798427366605412111580227845966
486,1.7802576728668280603620413225233
487,1.7806717577964148348857266911114
488,1.7810849949537528641443198114421
489,1.7814973878218623678773092762429
490,1.7819089398625079589436510929535
491,1.7823196545163734293796485492181
492,1.7827295352032344078457823686761
493,1.7831385853221288634113882752112
494,1.7835468082515265496563177500485
495,1.7839542073494955815216664035698
496,1.7843607859538693892686369136452
497,1.7847665473824097350002744850706
498,1.7851714949329697369343228867214
499,1.7855756318836543986821480234095
500,1.785978961492980773935362527951
501,1.786381487000033512505121482014
502,1.786783211624623242792189150895
503,1.787184138567439258715829976156
504,1.787584271010204354833598557418
505,1.787983612115824657012962509368
506,1.788382165028540178633247554308
507,1.788779932874073950234986786938
508,1.789176918759779362463895913909
509,1.789573125774783953083376350619
510,1.789968556990135691176594567312
511,1.790363215458944989496550409541
512,1.790757104216526345043222915334
513,1.791150226280538223485004387081
514,1.791542584651121863775717140254
515,1.791934182311039377148364749119
516,1.792325022225809350765037569513
517,1.792715107343841030702521603584
518,1.793104440596568869604688449418
519,1.793493024898584220892578131961
520,1.793880863147767036483436851077
521,1.794267958225414363200170979672
522,1.794654312996369914024926650711
523,1.795039930309151151310831098083
