Eigenstate,Potential Energy
1,0.500000000031447318058039906803793202
2,0.64623093785638625398387527812146952
3,0.73633761030794402121731198717466788
4,0.79966527907015189244772778965018402
5,0.8480465774611817085515471144945504
6,0.8870660002366386836380135815143482
7,0.9197208288351334352802535802364204
8,0.9477838496338480793756126727826405
9,0.9723835616392031863412352625652058
10,0.9942802189998630392387787767326717
11,1.0140093918569317946577626572472944
12,1.0319621755150887046808217123011385
13,1.0484327000401818697292448267250203
14,1.0636476631153908914164092274735013
15,1.0777854458554124355109330310040486
16,1.090988917676905789836146289898328
17,1.103374269759997619450983460933119
18,1.115037266054481798445739579943094
19,1.126057766383797348962826494788311
20,1.136503064078965155913120382484902
21,1.146430392060285370686853987920414
22,1.155888833996077728797738031754583
23,1.164920802239206355399743181940303
24,1.173563195227502047163334764049800
25,1.181848314279688764654027391695048
26,1.189804597402971466341764793017449
27,1.197457212255612013716278951527008
28,1.204828539505969067521820177430480
29,1.211938570034450073373063440986611
30,1.218805233775335865535170420389883
31,1.225444673849499917440153207113491
32,1.231871476561144682693069174751299
33,1.238098865522029666129450568517837
34,1.244138866416119598293281872029526
35,1.250002447578386020990406215918118
36,1.255699640528016713022990708348296
37,1.261239643792202836703223002867688
38,1.266630912726254942616463795717306
39,1.271881237537950320600421747485695
40,1.276997811328193401375643949286624
41,1.281987289643320639554560124367786
42,1.286855842779388707262745219558097
43,1.291609201872298482700403749401369
44,1.296252699639513302477558962906281
45,1.300791306501560377568119087293659
46,1.305229662698367990142333025416370
47,1.309572106922014476212632994389618
48,1.313822701909878634785934896557963
49,1.317985257377518660324299950633981
50,1.32206335061648398166726264235314
51,1.32606034503679742810064325504557
52,1.32997940689549992896065682723299
53,1.33382352042019983461902890477454
54,1.33759550150900781524121665807450
55,1.34129801016476280120009157497017
56,1.34493356180137985890413442026481
57,1.34850453754295193068173734614597
58,1.35201319362144018107368899880090
59,1.35546166996603374461186298564487
60,1.35885199806623516246095849727458
61,1.36218610818116356779642030674486
62,1.36546583595926667467897828228430
63,1.36869292852539073616632129078556
64,1.37186905008584515748092961427116
65,1.37499578709656361008075498324236
66,1.37807465303461615342579250393444
67,1.38110709280906457990811599030621
68,1.38409448684339703760474154803893
69,1.38703815485846531478616364445283
70,1.38993935938191990184956142078348
71,1.39279930900753924261484196886626
72,1.39561916142555134454188089313177
73,1.39840002624299291102410926831474
74,1.40114296761133231036081345271151
75,1.40384900667695159490770522794946
76,1.40651912386863322715002399243897
77,1.40915426103489477102449641873444
78,1.41175532344284900863625379168685
79,1.41432318164922012252463218244981
80,1.41685867325320845798731004473486
81,1.41936260454004703849570955134201
82,1.42183575202333155668103576853583
83,1.42427886389351682958066350221346
84,1.42669266137934841511848661559989
85,1.42907784002843881061913473722665
86,1.43143507091268178876659793806254
87,1.43376500176374095561802916562731
88,1.43606825804342523754767295613248
89,1.43834544395338050183440578315203
90,1.44059714338818329887710364900830
91,1.44282392083560126197134397260706
92,1.44502632222749640304177323329144
93,1.44720487574458528766888273781285
94,1.44936009257802714401079856063856
95,1.45149246765058980619167452766709
96,1.45360248029994157061183118067335
97,1.45569059492643270152522032807599
98,1.45775726160755744793499748332458
99,1.45980291668113396166895878398770
100,1.46182798329909316608041333558804
101,1.46383287195363832066567117927661
102,1.46581798097741145216820728852466
103,1.46778369701919490912662336491894
104,1.46973039549656903211327675709849
105,1.47165844102685385815333467530315
106,1.47356818783757201357046000973724
107,1.47545998015759186754985394746245
108,1.47733415259003077915497871261749
109,1.47919103046792967700020253624403
110,1.48103093019364779065643544591051
111,1.48285415956286049166840372336269
112,1.48466101807399376842869054556156
113,1.48645179722387332335958015539262
114,1.48822678079031752309746174008809
115,1.48998624510236298387194154399741
116,1.49173045929876324262358616743564
117,1.49345968557536925139746993284066
118,1.49517417942195940144417682786452
119,1.49687418984905306974350669570274
120,1.49855995960521583843128329941742
121,1.50023172538532627036535123468667
122,1.50188971803025521093409533195843
123,1.50353416271837639327884002717049
124,1.50516527914930944429276649325950
125,1.50678328172026682249601651886532
126,1.50838837969536102158889533526148
127,1.50998077736820779559889704038305
128,1.51156067421813857434731152734047
129,1.51312826506032316472299965444765
130,1.51468374019008545138376595919329
131,1.51622728552167940638763895631410
132,1.51775908272177774005567162921022
133,1.51927930933791374378364575166676
134,1.52078813892210559956165848399148
135,1.52228574114987432261767679795266
136,1.52377228193486281607095819077734
137,1.52524792353925020853775340644817
138,1.52671282468014203364092185444454
139,1.52816714063211470446959995624533
140,1.52961102332607729006680495596912
141,1.53104462144460904353279474076067
142,1.53246808051392305806513118518765
143,1.53388154299259777708687939869852
144,1.53528514835721090497763429809373
145,1.53667903318500607716271616015415
146,1.53806333123371477956524575043936
147,1.53943817351864780445956527450714
148,1.54080368838717157173128498801426
149,1.54216000159067111647494179547754
150,1.54350723635410338378301178149673
151,1.54484551344323674495634782568591
152,1.54617495122966703428136017982357
153,1.54749566575369905604272449207422
154,1.54880777078517746098824739619553
155,1.55011137788234522821293047367957
156,1.55140659644880761879921745408682
157,1.55269353378867264779007700610812
158,1.55397229515993989256951631247460
159,1.5552429838262013104569278432906
160,1.5565057011067204030258760177935
161,1.5577605464249482232394381870797
162,1.5590076173555356864744189986472
163,1.5602470096698970387046954551532
164,1.5614788173803791184098784113042
165,1.5627031327830850123978224925214
166,1.5639200464994026211007555634986
167,1.5651296475162853656355611423861
168,1.5663320232253277255127569343739
169,1.5675272594606806690557135920109
170,1.5687154405358467196170091030915
171,1.5698966492793948520235539538088
172,1.5710709670696330858796004252671
173,1.5722384738682741780292902694272
174,1.5733992482531302576638606407624
175,1.5745533674498703889774971862172
176,1.5757009073628707676956171209049
177,1.5768419426051908119841060020321
178,1.5779765465277043021066460861340
179,1.5791047912474120137469458056748
180,1.5802267476749667913657604280794
181,1.5813424855414337101497459946011
182,1.5824520734243130219084449830138
183,1.5835555787728489341642519035920
184,1.5846530679326484639422148374748
185,1.5857446061696321743537906650706
186,1.5868302576933377625644542706952
187,1.5879100856796002996134109127804
188,1.5889841522926245583701076078919
189,1.5900525187064731606857145706951
190,1.5911152451259861947845502229303
191,1.5921723908071515254140454299516
192,1.5932240140769421789226509708619
193,1.5942701723526391070791338549598
194,1.5953109221606526703809859472219
195,1.5963463191548607731751237219498
196,1.5973764181344773424547680512691
197,1.5984012730614655256168832043107
198,1.5994209370775097691225120668932
199,1.6004354625205596118767568004979
200,1.6014449009409591334905399506772
201,1.6024493031171730338040446068741
202,1.6034487190711227197847252905479
203,1.6044431980831430544827353995204
204,1.6054327887065713829068998739504
205,1.6064175387819788001342437588653
206,1.6073974954510566803514712022843
207,1.6083727051701643374550706718260
208,1.6093432137235520386160168200106
209,1.6103090662362651136379602494943
210,1.6112703071867406557093116675152
211,1.6122269804191041725069085345223
212,1.6131791291551764147747387200088
213,1.6141267960061947602671427959661
214,1.6150700229842641287412032432570
215,1.6160088515135366342245660627992
216,1.6169433224411339290106075811153
217,1.6178734760478161984176895143789
218,1.6187993520584067787568872713623
219,1.6197209896519756714385962582924
220,1.6206384274717944613399274705214
221,1.6215517036350605417170333382643
222,1.6224608557424078430219294604853
223,1.6233659208871976264489459342984
224,1.6242669356646044015029347445709
225,1.6251639361804995241257548918165
226,1.6260569580601360133153856289691
227,1.6269460364566432290780532538854
228,1.6278312060593332219062685151452
229,1.6287125011018259059196976328970
230,1.6295899553699977418989909024558
231,1.6304636022097557194685240304283
232,1.6313334745346470473343994067945
233,1.6321996048332995370675520321200
234,1.6330620251767088264831189240925
235,1.6339207672253656137011701561251
236,1.6347758622362326006420877281033
237,1.6356273410695747660683918814999
238,1.6364752341956446991683396862332
239,1.6373195717012284292453431711201
240,1.6381603832960539049138343921591
241,1.6389976983190664041330581989505
242,1.6398315457445737310116861404615
243,1.6406619541882652301386844621423
244,1.6414889519131063066583495688808
245,1.6423125668351128251819198341116
246,1.6431328265290079060848209977375
247,1.6439497582337625009560278165478
248,1.6447633888580273277347407572618
249,1.6455737449854511340306639660144
250,1.6463808528798956727294773940783
251,1.6471847384905452892909472285810
252,1.6479854274569139186352896934213
253,1.6487829451137545632166893131574
254,1.6495773164958709085366372271952
255,1.6503685663428349555220485871954
256,1.6511567191036107545308349370808
257,1.6519417989410906317247164905305
258,1.6527238297365403518637137587275
259,1.6535028350939600203684756913994
260,1.6542788383443611103505526553390
261,1.6550518625499599276634670634884
262,1.6558219305082922387020392385012
263,1.6565890647562479108327832164610
264,1.6573532875740310156085209496353
265,1.6581146209890439192957196439025
266,1.6588730867796975277468259772951
267,1.6596287064791508981504917511695
268,1.6603815013789802506590121631182
269,1.6611314925327816490921822312425
270,1.6618787007597030741426266873502
271,1.6626231466479151723188386130962
272,1.6633648505580146594707191348899
273,1.6641038326263678212915579545986
274,1.6648401127683913190944362490823
275,1.6655737106817741757221103585376
276,1.6663046458496392192227292643069
277,1.6670329375436514675850241111579
278,1.6677586048270652084602864687280
279,1.6684816665577212763192023544740
280,1.6692021413909866198931934861229
281,1.6699200477826440487068635577691
282,1.6706354039917296549533811090308
283,1.6713482280833211231428391636329
284,1.6720585379312740840422838037874
285,1.6727663512209133201520785540358
286,1.6734716854516748474469268561247
287,1.6741745579397039326568905229513
288,1.6748749858204054478479763476499
289,1.6755729860509512103500315225226
290,1.6762685754127450405432561391151
291,1.6769617705138433784273480458436
292,1.6776525877913343438634872461125
293,1.6783410435136791462475635376840
294,1.6790271537830108805135689521312
295,1.6797109345373927965951128798487
296,1.6803924015530436278894729718450
297,1.6810715704465199104328447526384
298,1.6817484566768646095218137059502
299,1.6824230755477188566203711998101
300,1.6830954422093985471397605581627
301,1.6837655716609362105100870748188
302,1.6844334787520902454581829199932
303,1.6850991781853186936015245833804
304,1.6857626845177211288694821361295
305,1.6864240121629500912594803775591
306,1.6870831753930913281294828417807
307,1.6877401883405100249816698977479
308,1.6883950649996705041672347667117
309,1.6890478192289254807795177052823
310,1.6896984647522752108831776114885
311,1.6903470151611001269841723661402
312,1.6909934839158644738745964181773
313,1.6916378843477923376028372289449
314,1.6922802296605178718446245231709
315,1.6929205329317090413197634275672
316,1.6935588071146662578985947260880
317,1.6941950650398934480049721101992
318,1.6948293194166469025630251917152
319,1.6954615828344590510514496240855
320,1.6960918677646371609262779253834
321,1.6967201865617408813479829778342
322,1.6973465514650347456469590359039
323,1.6979709745999191465680383060821
324,1.6985934679793387614368474606844
325,1.6992140435051701892307584001130
326,1.6998327129695870367839329553762
327,1.7004494880564052748843957755482
328,1.7010643803424060534601585490212
329,1.7016774012986409507158689989585
330,1.7022885622917160878884837098680
331,1.7028978745850565482010135462300
332,1.7035053493401521612411675052254
333,1.7041109976177850313051203306227
334,1.7047148303792369937149440437941
335,1.7053168584874813140273738662205
336,1.7059170927083546881703565126174
337,1.7065155437117124157386632086372
338,1.7071122220725678052855398943846
339,1.7077071382722118761024841819637
340,1.7083003026993194478129527016458
341,1.7088917256510373313426054053283
342,1.7094814173340571184008476204562
343,1.7100693878656722072483403086449
344,1.7106556472748190584428393759576
345,1.7112402055031044998832625589638
346,1.7118230724058165559321331438672
347,1.7124042577529223659609717710926
348,1.7129837712300500040281624538010
349,1.7135616224394577445996332309473
350,1.7141378209009883166393081076363
351,1.7147123760530102336585744867819
352,1.7152852972533458820769711074302
353,1.7158565937801856522582765888337
354,1.7164262748329895266858444715287
355,1.7169943495333764905473076516854
356,1.7175608269259999745055717510883
357,1.7181257159794125686877110847070
358,1.7186890255869192518874219247051
359,1.7192507645674148811140344350337
360,1.7198109416662148794021680405317
361,1.7203695655558708667458927272723
362,1.7209266448369777157532380008786
363,1.7214821880389666276300224740770
364,1.7220362036208892524828419315878
365,1.7225886999721910903055977934454
366,1.7231396854134730503158631087504
367,1.7236891681972440606488160059220
368,1.7242371565086615171364104229752
369,1.7247836584662642037144927777624
370,1.7253286821226933976325638656555
371,1.7258722354654050127739465493781
372,1.7264143264173717375651357302647
373,1.7269549628377751341897461783795
374,1.7274941525226920075861504249884
375,1.7280319032057657357990319119483
376,1.7285682225588740179005546703895
377,1.7291031181927848286930977714256
378,1.7296365976578037476044867120397
379,1.7301686684444145015794162506888
380,1.7306993379839094787321837004285
381,1.7312286136490130881981091175323
382,1.7317565027544950843541707479997
383,1.7322830125577785300722831760675
384,1.7328081502595373627067143856744
385,1.7333319230042871840723221568095
386,1.7338543378809699330662612293172
387,1.7343754019235281902706895365900
388,1.7348951221114730513349306895315
389,1.7354135053704462438219119876751
390,1.7359305585727736766241346429881
391,1.7364462885380107388882195437985
392,1.7369607020334829568231621155428
393,1.7374738057748194818765284769887
394,1.7379856064264779913728373534410
395,1.7384961106022638584846235359733
396,1.7390053248658432424001863283024
397,1.7395132557312497285937404695700
398,1.7400199096633845273291876108953
399,1.7405252930785087961855348444210
400,1.7410294123447323865590595137802
401,1.7415322737824950630583684804908
402,1.7420338836650409410065414763125
403,1.7425342482188889627865298810435
404,1.7430333736242973061176271166127
405,1.7435312660157191897049957133587
406,1.7440279314822561852943635711774
407,1.7445233760681061528496707137796
408,1.7450176057730033020450919974692
409,1.7455106265526532411464055213147
410,1.7460024443191655277579831647764
411,1.7464930649414779814517693874662
412,1.7469824942457763408650550066032
413,1.7474707380159103443258990248325
414,1.7479578019938026578500077745322
415,1.7484436918798549344700557176064
416,1.7489284133333474345302735560480
417,1.7494119719728350554315171752704
418,1.7498943733765369340633571728453
419,1.7503756230827239004339924054770
420,1.7508557265900987644199877214587
421,1.7513346893581733878196214346961
422,1.7518125168076418233128344840474
423,1.7522892143207473564677089909940
424,1.7527647872416470645195365399442
425,1.7532392408767702712819189158926
426,1.7537125804951745050315607832553
427,1.7541848113288964439964601960063
428,1.7546559385732978631360248970981
429,1.7551259673874104946011426062703
430,1.7555949028942726639801776468296
431,1.7560627501812652059854194128756
432,1.7565295143004438090949537478374
433,1.7569952002688631270461355333309
434,1.7574598130689037551191585797882
435,1.7579233576485898948833684220219
436,1.7583858389219056083981642831491
437,1.7588472617691078232360475181755
438,1.7593076310370350703933814941991
439,1.7597669515394126363914236872780
440,1.7602252280571552007811366853803
441,1.7606824653386641189039081920360
442,1.7611386681001229135534724170818
443,1.7615938410257906232336258993832
444,1.7620479887682876263819289824527
445,1.7625011159488832722168084630251
446,1.7629532271577763425560632352331
447,1.7634043269543755137741520841744
448,1.7638544198675730370985823604795
449,1.7643035103960194777481362335610
450,1.7647516030083916653530530892020
451,1.7651987021436613587496728872336
452,1.7656448122113574664959341068782
453,1.7660899375918275661784960612967
454,1.7665340826364951114578767384649
455,1.7669772516681159507232978785323
456,1.7674194489810294543533375668696
457,1.7678606788414089462890511202239
458,1.7683009454875078358133443803910
459,1.7687402531299039634603449249444
460,1.7691786059517418033959981850676
461,1.7696160081089703719930660345815
462,1.7700524637305800556497030643102
463,1.7704879769188369616214170466010
464,1.7709225517495129527696224142560
465,1.7713561922721153349633947047969
466,1.7717889025101133278283421704413
467,1.7722206864611605993586258193744
468,1.7726515480973188800319433512882
469,1.7730814913652751331243293046561
470,1.7735105201865598057632901265425
471,1.7739386384577604278275022930807
472,1.7743658500507348563031135790059
473,1.7747921588128195159998863420098
474,1.7752175685670401406197041584111
475,1.7756420831123139369333912128135
476,1.7760657062236556858701013252389
477,1.7764884416523781135163845144532
478,1.7769102931262912080137320738781
479,1.7773312643498993717371659183253
480,1.7777513590045968033374563198874
481,1.7781705807488596605201755601071
482,1.7785889332184385723491812665433
483,1.7790064200265468810703857888822
484,1.7794230447640474332107942471786
485,1.7798388109996393968262915569137
486,1.7802537222800396896922978480334
487,1.7806677821301658672171541519385
488,1.7810809940533150665633881752008
489,1.7814933615313422350749853895814
490,1.7819048880248355060529960561461
491,1.7823155769732908560779356803684
492,1.7827254317952846319799791771404
493,1.7831344558886439223785660835768
494,1.7835426526306158677412415154001
495,1.7839500253780341013685034506651
496,1.7843565774674855656331261965100
497,1.7847623122154733889003524488758
498,1.7851672329185797682883876456642
499,1.7855713428536263554922754076630
500,1.785974645277834276044271333437
501,1.786377143428979527922810144459
502,1.786778840525551214557339491867
503,1.787179739766904080224969522814
504,1.787579844333413191537239942741
505,1.787979157386623612345008333748
506,1.788377682069400802006400036715
507,1.788775421506079584899683356411
508,1.789172378802611330991987512003
509,1.789568557046707578204557566666
510,1.789963959307986149655657992190
511,1.790358588638112996705099299049
512,1.790752448070943667839222321833
513,1.791145540622663018977704611132
514,1.791537869291923841510198028729
515,1.791929437059984782208113325526
516,1.792320246890845765247212248179
517,1.792710301731381990979761150261
518,1.793099604511478296746151386158
519,1.793488158144160661571330588356
520,1.793875965525727711656565737015
521,1.794263029535879021800236022264
522,1.794649353037844488857606497880
523,1.795034938878511214306780619070
