Eigenstate,Potential Energy
1,0.500000000016784192137968616792850761
2,0.64623093776067303688049512470483380
3,0.73633761002679429402870850972017655
4,0.79966527848454946998805438106593796
5,0.8480465764467992637280136240288020
6,0.8870659986669735136662837802732595
7,0.9197208265826631378704928791475545
8,0.9477838465705127880633432011694514
9,0.9723835576366300589508989371867283
10,0.9942802139294804247191541286414274
11,1.0140093855900314656615196445581612
12,1.0319621679228616253578002193250118
13,1.0484326909937395561099420009184432
14,1.0636476524857784804248301348859314
15,1.0777854335136167520632338771536509
16,1.090988903493860272090714921440725
17,1.103374253606585200427683844787972
18,1.115037247801536417231201803653915
19,1.126057745902104517988806915144123
20,1.136503041239261862443275301336135
21,1.146430366733259498630451997721908
22,1.155888806052367128290014937795340
23,1.164920771549397649227671300953387
24,1.173563161662129237469434037593313
25,1.181848277709231685853985447936108
26,1.189804557697854118032545164687820
27,1.197457169286200798758318621672823
28,1.204828493142570954311725935856890
29,1.211938520147310696833927569915369
30,1.218805180234637578040801373416905
31,1.225444616525359798418117030028192
32,1.231871415323612513785900416204025
33,1.238098800241085877370436257641249
34,1.244138796961673189657285185632484
35,1.250002373820272462828449356356657
36,1.255699562335995828221723556322363
37,1.261239561035956666882944320266716
38,1.266630825275385600261536220383008
39,1.271881145261977828679395045625485
40,1.276997714096553521736816951572269
41,1.281987187325362691162236405233094
42,1.286855735244373375159307061179732
43,1.291609088989395618431370203718596
44,1.296252581277799716594632261850320
45,1.300791182530017624723799728714479
46,1.305229532985880147205087567610278
47,1.309571971337365913760749542672113
48,1.313822560321751782278519475044680
49,1.317985109654491765197470336522007
50,1.32206319662702886256081944631679
51,1.32606018464927722238402200763804
52,1.32997923997816683469580808223214
53,1.33382334684119284707113421559352
54,1.33759532113635045802507659549189
55,1.34129782286636085213013209166652
56,1.34493336744501907059869685429357
57,1.34850433599629574595732149471575
58,1.35201298475202744315165985805409
59,1.35546145364127640214871515100212
60,1.35885177415341596940312974361277
61,1.36218587654743377805178011208652
62,1.36546559647164373158926820749476
63,1.36869268105075595675789935539271
64,1.37186879449094141146501068161766
65,1.37499552324799299356881992072623
66,1.37807438079883765732094266943594
67,1.38110681205239175292875570653813
68,1.38409419743199564389301428728069
69,1.38703785665835098604996464448977
70,1.38993905225895578398381927229947
71,1.39279899282743363674470879212490
72,1.39561883605385534242794578531123
73,1.39839969154509802476721354325406
74,1.40114262345246809634190266608283
75,1.40384865292218327189605253374835
76,1.40651876038285928851134238823823
77,1.40915388768284459095868417237848
78,1.41175494008908044237292242540063
79,1.41432278815811710040304649837636
80,1.41685826948897857334603119221111
81,1.41936219036671912929586436803952
82,1.42183532730475328078593680112338
83,1.42427842849335223361335660009917
84,1.42669221516107549681769338987338
85,1.42907738285534707461300562963152
86,1.43143460264786979568277239347657
87,1.43376452227011386444745732678879
88,1.43606776718369234117881786568710
89,1.43834494159005275567357538007246
90,1.44059662938357084246980618848977
91,1.44282339505181093353874897766307
92,1.44502578452642924684560397573795
93,1.44720432598793405411728519853964
94,1.44935953062727378241699634268949
95,1.45149189336700295009649371349998
96,1.45360189354457401558049301305990
97,1.45568999556011887532805673974035
98,1.45775664949091087302112997791228
99,1.45980229167454470984122925893124
100,1.46182734526272530527926888726332
101,1.46383222074742735376899214111867
102,1.46581731646106174771343167245950
103,1.46778301905217712386093256207542
104,1.46972970393811752527684189371510
105,1.47165773573596409740011396885216
106,1.47356746867299797243033205958750
107,1.47545924697784341433525212660154
108,1.47733340525337105721458557076894
109,1.47919026883237247622157753887391
110,1.48103015411695491011887740692945
111,1.48285336890253909334667751919331
112,1.48466021268729372184761688181859
113,1.48645097696778454109889089701023
114,1.48822594552156728704563737628104
115,1.48998539467741326212711750329150
116,1.49172959357380799693899973500605
117,1.49345880440633173506825726162733
118,1.49517328266448944753165164690083
119,1.49687327735852436953246284231637
120,1.49855903123672321001514265882524
121,1.50023078099368291725335117595024
122,1.50188875746998997057403258603448
123,1.50353318584373097538821481115146
124,1.50516428581423565889052016529805
125,1.50678227177842379752630484210298
126,1.50838735300011241002775559656574
127,1.50997973377261897193389441672448
128,1.51155961357497382031954119355522
129,1.51312718722204284422017891702693
130,1.51468264500884317437241220243193
131,1.51622617284931918177161199549640
132,1.51775795240983111734754508262729
133,1.51927816123759694347487328448283
134,1.52078697288431663207647210547460
135,1.52228455702519009573509066982957
136,1.52377107957353623069850955869895
137,1.52524670279120724271971986561238
138,1.52671158539497881468310156600535
139,1.52816588265909456906192167506222
140,1.52960974651412783228423103958678
141,1.53104332564231915059427760631436
142,1.53246676556953993372943721345422
143,1.53388020875402395256345660426671
144,1.53528379467200123722968526219007
145,1.53667765990036473447903830291606
146,1.53806193819649221427636949623462
147,1.53943676057533771267299559689501
148,1.54080225538390783995978815373086
149,1.54215854837322475503089638393257
150,1.54350576276787944681106414729371
151,1.54484401933327123697564231506358
152,1.54617343644062380310780846965708
153,1.54749413012986667196079559039634
154,1.54880621417046608204099702457146
155,1.55010980012028345147793235092137
156,1.55140499738253931751710389121724
157,1.55269191326095379421167512726384
158,1.55397065301313536638643338697796
159,1.5552413199022816926795027896361
160,1.5565040152472587551715493784878
161,1.5577588384711168516935062476834
162,1.5590058871481028918841829051516
163,1.5602452570492238502671377478198
164,1.5614770421864160129117822042867
165,1.5627013348553686178663736041923
166,1.5639182256770524049216418965253
167,1.5651278036380003069944914716717
168,1.5663301561293829720152516830818
169,1.5675253689849241773790923080077
170,1.5687135265176958800471877207355
171,1.5698947115558330967284708102683
172,1.5710690054772064807697511266795
173,1.5722364882430879980548975649655
174,1.5733972384308455453970192347656
175,1.5745513332657004963264692007027
176,1.5756988486515778805974100290631
177,1.5768398592010824579202254316720
178,1.5779744382646298402857985729429
179,1.5791026579587591077972593000802
180,1.5802245891936578643778835672496
181,1.5813403016999223819110198757018
182,1.5824498640545805281671235961236
183,1.5835533437064005277614756221587
184,1.5846508070005097976482150110317
185,1.5857423192023456652435146000189
186,1.5868279445209589377667024021494
187,1.5879077461316941232659885047012
188,1.5889817861982617396124709402410
189,1.5900501258942264425191399313102
190,1.5911128254239266236285158384170
191,1.5921699440428447011863238047162
192,1.5932215400774444854690278743708
193,1.5942676709444939227775112582487
194,1.5953083931698865587431106137081
195,1.5963437624069796532678625644688
196,1.5973738334544626389613648373900
197,1.5983986602737702983572750211521
198,1.5994182960060548218503207976311
199,1.6004327929887295801690446514810
200,1.6014422027715985515450054076729
201,1.6024465761325823799569580740848
202,1.6034459630930544405610724001958
203,1.6044404129327975669889112201881
204,1.6054299742045930553744051218853
205,1.6064146947484519104215895841117
206,1.6073946217055013522096675305445
207,1.6083698015315324543606431686076
208,1.6093402800102231349738385490415
209,1.6103061022660422431545606083191
210,1.6112673127768462367356783519885
211,1.6122239553861758101481842477832
212,1.6131760733152626995625429815459
213,1.6141237091747510431883777685596
214,1.6150669049761482724158184127275
215,1.6160057021430047400227421391530
216,1.6169401415218360398981653674244
217,1.6178702633927919773168094552477
218,1.6187961074800811622074334924712
219,1.6197177129621544983434092855973
220,1.6206351184816600765758118946602
221,1.6215483621551673743911811618259
222,1.6224574815826779591516870909629
223,1.6233625138569162558410044672334
224,1.6242634955724154386061238728193
225,1.6251604628344010026295197109284
226,1.6260534512674755542643501854650
227,1.6269424960241134622709090212059
228,1.6278276317929671803452927409041
229,1.6287088928069923930752710636379
230,1.6295863128513966715512987068635
231,1.6304599252714134278867573237283
232,1.6313297629799115775515546803684
233,1.6321958584648358950068858641042
234,1.6330582437964942086901712147395
235,1.6339169506346846064331970015853
236,1.6347720102356723500645327803335
237,1.6356234534590201193057470943393
238,1.6364713107742733159546998672905
239,1.6373156122675058639176764111346
240,1.6381563876477286584885420512854
241,1.6389936662531649462043880428208
242,1.6398274770573954912081524138814
243,1.6406578486753775588711565096222
244,1.6414848093693394048913563688119
245,1.6423083870545546429572387772282
246,1.6431286093049990095238523839834
247,1.6439455033588909074652483806499
248,1.6447590961241233091359450793573
249,1.6455694141835819873352990486924
250,1.6463764838003604582736417026831
251,1.6471803309228695359453102941145
252,1.6479809811898442958015595592185
253,1.6487784599352535193195845041328
254,1.6495727921931112757176869276165
255,1.6503640027021945202390477699040
256,1.6511521159106667937637768459294
257,1.6519371559806144144865965489475
258,1.6527191467924916057117622800427
259,1.6534981119494813626086098708388
260,1.6542740747817724436249462751180
261,1.6550470583507527996082746307093
262,1.6558170854531241653596845448243
263,1.6565841786249366634999460864193
264,1.6573483601455488707984377296114
265,1.6581096520415118714899706084058
266,1.6588680760903794646093164839582
267,1.6596236538244477378728500124481
268,1.6603764065344240411036611446304
269,1.6611263552730296283965281125676
270,1.6618735208585316924442421208750
271,1.6626179238782140742587271369921
272,1.6633595846917806271280957520745
273,1.6640985234346986772009075213787
274,1.6648347600214797889918153706997
275,1.6655683141489017106647106799768
276,1.6662992052991697767221222415087
277,1.6670274527430252513912083224200
278,1.6677530755427923666301905432267
279,1.6684760925553755572000610597847
280,1.6691965224351989856472980086471
281,1.6699143836370962460009523935664
282,1.6706296944191477424322043308627
283,1.6713424728454689553028827081157
284,1.6720527367889467511181586583074
285,1.6727605039339305436236946523003
286,1.6734657917788743307727490828197
287,1.6741686176389346668341092905142
288,1.6748689986485209713967245684713
289,1.6755669517638028233152138234159
290,1.6762624937651749721032147057228
291,1.6769556412596779076948437116370
292,1.6776464106833768734604380345276
293,1.6783348183037032282311284762964
294,1.6790208802217531942262685241789
295,1.6797046123745460780086878446824
296,1.6803860305372495500072072885395
297,1.6810651503253619143108684959191
298,1.6817419871968606854659217708037
299,1.6824165564543142751104848160315
300,1.6830888732469585390293845720970
301,1.6837589525727385960442525941705
302,1.6844268092803180116482757530869
303,1.6850924580710525194914488120393
304,1.6857559135009318582225128795037
305,1.6864171899824911521907473528531
306,1.6870763017866910992043645518578
307,1.6877332630447641472953715002125
308,1.6883880877500341389162996107968
309,1.6890407897597055118308800229953
310,1.6896913827966223918417891243864
311,1.6903398804510011722548396866479
312,1.6909862961821340932087920711476
313,1.6916306433200652136163319457987
314,1.6922729350672405799863312162641
315,1.6929131845001319117671736406028
316,1.6935514045708351788497089575740
317,1.6941876081086416098315142498394
318,1.6948218078215864822840741872226
319,1.6954540162979728365814859316865
320,1.6960842460078701145455391962312
321,1.6967125093045916418383198215253
322,1.6973388184261470685294981806746
323,1.6979631854966732818745937280692
324,1.6985856225278427684399559570670
325,1.6992061414202511875523135291032
326,1.6998247539647823932959161577385
327,1.7004414718439537258092114536296
328,1.7010563066332387610723515241294
329,1.7016692698023724940404639048154
330,1.7022803727166353867851379996476
331,1.7028896266381177202170046652498
332,1.7034970427269653106093849378887
333,1.7041026320426069694574962932703
334,1.7047064055449618906745553455505
335,1.7053083740956312800361900248468
336,1.7059085484590702849028769162116
337,1.7065069393037430964448593587545
338,1.7071035572032622831996769169270
339,1.7076984126375084204476843279435
340,1.7082915159937361067239060046814
341,1.7088828775676620810220613482500
342,1.7094725075645379378183121905968
343,1.7100604161002070776820724280601
344,1.7106466132021458871588336871627
345,1.7112311088104909672374796412707
346,1.7118139127790498851749115219169
347,1.7123950348762990150144436333688
348,1.7129744847863652785002686654420
349,1.7135522721099953312903870152063
350,1.7141284063655097367865921308885
351,1.7147028969897442151636596410238
352,1.7152757533389776499407557707047
353,1.7158469846898461364519765490317
354,1.7164166002402444866707710735542
355,1.7169846091102155556507364080868
356,1.7175510203428255993505078567577
357,1.7181158429050289028661676434356
358,1.7186790856885209230578122741244
359,1.7192407575105756906947052408661
360,1.7198008671148764100238936489134
361,1.7203594231723310006173476600341
362,1.7209164342818790630841515748193
363,1.7214719089712848642473451361680
364,1.7220258556979213657661646363821
365,1.7225782828495435325582250926973
366,1.7231291987450497986783144621387
367,1.7236786116352345826523083908471
368,1.7242265297035286409830930942996
369,1.7247729610667318923619166955618
370,1.7253179137757344257495300526324
371,1.7258613958162285456245653476947
372,1.7264034151094108108676277810626
373,1.7269439795126740339858078033610
374,1.7274830968202935491464276217837
375,1.7280207747640984405789768808427
376,1.7285570210141391875507362530793
377,1.7290918431793435151158011866109
378,1.7296252488081636180386213369390
379,1.7301572453892165976834020894008
380,1.7306878403519148686235859073670
381,1.7312170410670894103964490594807
382,1.7317448548476029825625857112051
383,1.7322712889489579777207641988460
384,1.7327963505698938761684201151710
385,1.7333200468529779234512614048323
386,1.7338423848851896894432795084716
387,1.7343633716984952582814953565379
388,1.7348830142704149859411482905601
389,1.7354013195245855001235756942677
390,1.7359182943313131315488625449760
391,1.7364339455081190935789439901959
392,1.7369482798202800185331602988739
393,1.7374613039813613241665688657564
394,1.7379730246537419913920238011117
395,1.7384834484491336101018814909046
396,1.7389925819290933439399701978623
397,1.7395004316055304439147814765705
398,1.7400070039412063189707496842351
399,1.7405123053502267292910437792369
400,1.7410163421985304022718800704686
401,1.7415191208043701200698268565195
402,1.7420206474387870239204505520834
403,1.7425209283260809559499239146627
404,1.7430199696442747315506905510131
405,1.7435177775255698077480304539069
406,1.7440143580567994565732888482840
407,1.7445097172798765601452813075988
408,1.7450038611922335306348212899108
409,1.7454967957472572161706191187282
410,1.7459885268547213071458039785601
411,1.7464790603812105029240793520054
412,1.7469684021505400215155945910940
413,1.7474565579441715312627499370736
414,1.7479435335016219283625183378755
415,1.7484293345208692441681379300295
416,1.7489139666587521118841815951769
417,1.7493974355313656411222409159074
418,1.7498797467144508635341447354096
419,1.7503609057437820280149909721557
420,1.7508409181155467273783254178919
421,1.7513197892867228086679030038684
422,1.7517975246754513486883485199762
423,1.7522741296614035308755163893596
424,1.7527496095861450372111774601702
425,1.7532239697534943345214120666113
426,1.7536972154298784619789895582243
427,1.7541693518446838044182099693894
428,1.7546403841906018651289872046976
429,1.7551103176239739504964903590171
430,1.7555791572651276285701522543676
431,1.7560469081987124651938934547017
432,1.7565135754740321871893373273704
433,1.7569791641053686104661938744540
434,1.7574436790723084309731048129767
435,1.7579071253200607021397910144180
436,1.7583695077597728997762210394697
437,1.7588308312688437357737271230836
438,1.7592911006912317026472131607105
439,1.7597503208377600301971097544772
440,1.7602084964864191254783237977631
441,1.7606656323826636559027480680915
442,1.7611217332397078390943714156533
443,1.7615768037388185871648468093554
444,1.7620308485296011247528583335855
445,1.7624838722302864114571467795912
446,1.7629358794280113929837657202244
447,1.7633868746790992501467118300967
448,1.7638368625093328638932870658588
449,1.7642858474142293368286118442170
450,1.7647338338593077236495446794202
451,1.7651808262803574735509784622355
452,1.7656268290837004259206632084501
453,1.7660718466464521023625908473469
454,1.7665158833167786839644785268166
455,1.7669589434141532976489315469801
456,1.7674010312296069085733404537893
457,1.7678421510259785142517093907902
458,1.7682823070381610362599203936433
459,1.7687215034733454234147030238926
460,1.7691597445112626087333756287644
461,1.7695970343044211698635252888796
462,1.7700333769783439059965969063017
463,1.7704687766318019349995400945987
464,1.7709032373370444716334044358632
465,1.7713367631400282555565521907706
466,1.7717693580606437597712967683440
467,1.7722010260929374599921503478114
468,1.7726317712053351805370201109151
469,1.7730615973408589933992376626672
470,1.7734905084173451950014377663894
471,1.7739185083276576276975154625347
472,1.7743456009399006435940116299792
473,1.7747717900976270615522196436533
474,1.7751970796200486213225614294217
475,1.7756214733022378575243564129898
476,1.7760449749153339072332023720991
477,1.7764675882067425841289895195971
478,1.7768893169003353951490897767887
479,1.7773101646966463889853900665727
480,1.7777301352730672309611271516108
481,1.7781492322840390551156670057301
482,1.7785674593612446622371612441707
483,1.7789848201137964437916112128946
484,1.7794013181284228514548495161972
485,1.7798169569696548890730843280405
486,1.7802317401800072117944974322932
487,1.7806456712801606811024252832455
488,1.7810587537691409721838764916883
489,1.7814709911244964616790187409342
490,1.7818823868024732588016364449508
491,1.7822929442381895139748162933816
492,1.7827026668458075930285539412895
493,1.7831115580187040918252544585207
494,1.7835196211296387852077112717902
495,1.7839268595309207026179617540228
496,1.7843332765545745746579952414555
497,1.7847388755125033359605272599136
498,1.7851436596966506294680163360622
499,1.7855476323791608092837159932463
500,1.785950796812538572405756462499
501,1.786353156229803965192624615063
502,1.786754713844650219545994990131
503,1.787155472851595886739235897092
504,1.787555436426139112527426616502
505,1.787954607724906900797594285230
506,1.788352989885805095637705316837
507,1.788750586028166929637028686387
508,1.789147399252899778159449577768
509,1.789543432642628350257960482216
510,1.789938689261840369241768418971
511,1.790333172157027973744020272342
512,1.790726884356828739255808064863
513,1.791119828872164935632408715366
514,1.791512008696381696802557311463
515,1.791903426805384476747258878708
516,1.792294086157774001905216023432
517,1.792683989694979794563296740907
518,1.793073140341394052438418554026
519,1.793461541004502666214877099973
520,1.793849194575016231860911002039
521,1.794236103926997852773980426145
522,1.794622271917992007776210934078
523,1.795007701389150921938217187169
