Eigenstate,Potential Energy
1,0.500000000021277612365022503513543110
2,0.64623093779000371402242613180605536
3,0.73633761011295066186916080141604125
4,0.79966527866400297681105466383133171
5,0.8480465767576486443561477559189601
6,0.8870659991479837582449053586156644
7,0.9197208272729112463692687005020960
8,0.9477838475092398962949789098108235
9,0.9723835588631725493740049262570846
10,0.9942802154832348445173316140982737
11,1.0140093875104353596674328244747058
12,1.0319621702493824788673247974940057
13,1.0484326937658681526790640578741850
14,1.0636476557430248004252333554390260
15,1.0777854372955074039597206980850263
16,1.090988907839936886430622852849940
17,1.103374258556403449995438937308294
18,1.115037253394665457059636065209580
19,1.126057752178126714527431996047230
20,1.136503048237772726644967890911644
21,1.146430374493867765915849177007074
22,1.155888814614694946330573400833577
23,1.164920780953080846243731621790400
24,1.173563171946817651598668517676282
25,1.181848288914589541507358822979874
26,1.189804569863560438880949987218213
27,1.197457182451949849626303963767768
28,1.204828507348072706144603001816154
29,1.211938535432291310280218807255881
30,1.218805196638839902206556763784140
31,1.225444634088543882106937182004880
32,1.231871434085556127110167367666278
33,1.238098820241585042055283514108727
34,1.244138818240542716694660014221104
35,1.250002396417346496399610395515031
36,1.255699586291128395011076192376302
37,1.261239586389022230067728515137259
38,1.266630852066279617590518126465922
39,1.271881173530617314156811958219079
40,1.276997743882877610511035367409193
41,1.281987218669333207286117985168831
42,1.286855768185975401944461027888097
43,1.291609123568638071163783506595876
44,1.296252617534715917416586828738888
45,1.300791220504665879518039067700306
46,1.305229572718344324343098281189471
47,1.309572012867756024598708310990036
48,1.313822603690204563302723359121698
49,1.317985154901171261736483879180172
50,1.32206324379212701399465589469568
51,1.32606023377301444879182975439225
52,1.32997929110079262489305322998784
53,1.33382340000298634799543387920526
54,1.33759537637762106543688893604099
55,1.34129788022744880260056361366409
56,1.34493342696629603476196671201679
57,1.34850439771816542300997867278300
58,1.35201304871492615658465924671267
59,1.35546151988567369670191995461346
60,1.35885184271981520923487957255830
61,1.36218594747637274611884049462834
62,1.36546566980369523023486080195510
63,1.36869275682652840950759037656256
64,1.37186887275107946603209629516057
65,1.37499560403317812607250807556801
66,1.37807446414978877772208323183017
67,1.38110689800986581168919362178935
68,1.38409428603678823986581541025485
69,1.38703794795129697560882582261834
70,1.38993914628092989140090449227564
71,1.39279908961935106582704050731675
72,1.39561893565667238942323107306965
73,1.39839979399981269255070045199475
74,1.40114272880012070989650276735903
75,1.40384876120385709509854698334729
76,1.40651887163968114223803308257240
77,1.40915400195598547252431944161579
78,1.41175505741975614631719118899016
79,1.41432290858758884063936126212849
80,1.41685839305855360668767561412160
81,1.41936231711775138037496308796312
82,1.42183545727864396838102196579080
83,1.42427856173155049840161576750010
84,1.42669235170507903056827180262283
85,1.42907752274670275083801542234982
86,1.43143474592817430176289178396118
87,1.43376466898101433524927821289416
88,1.43606791736688699418129185828559
89,1.43834509528729152762114976893286
90,1.44059678663665602757002621083583
91,1.44282355590259782322231449515643
92,1.44502594901682677110704319105408
93,1.44720449415990542445459765733681
94,1.44935970252283713638878303332285
95,1.45149206902823199751526310434578
96,1.45360207301359868636098182019114
97,1.45569017887912596900958540598811
98,1.45775683670214470998313136460259
99,1.45980248282030778423126337881043
100,1.46182754038537893967297216050226
101,1.46383241988939235558154510484338
102,1.46581751966481906738228199949178
103,1.46778322636026851481961346330849
104,1.46972991539314620573991837514595
105,1.47165795138059541397935724798988
106,1.47356768854996006560239432778273
107,1.47545947112992788578123087395386
108,1.47733363372343363905198547428725
109,1.47919050166333370214932612401038
110,1.48103039135180078849615307790718
111,1.48285361058432178222644461187854
112,1.48466045885913220598589760006069
113,1.48645122767286531096089995604886
114,1.48822620080314501983005929563760
115,1.48998565457881150482991397404191
116,1.49172985813841985147826080700011
117,1.49345907367762054549173110067110
118,1.49517355668598948932872369543125
119,1.49687355617384154107246128756851
120,1.49855931488953572613398317414439
121,1.50023106952774200501066096993113
122,1.50188905092912056720300733638643
123,1.50353348427183242846059995400854
124,1.50516458925528242871921859094615
125,1.50678258027646616182826561317411
126,1.50838766659927717086989637518012
127,1.50998005251711016498495940284350
128,1.51155993750907342643091607691958
129,1.51312751639011150335881910649876
130,1.51468297945532090192915654622922
131,1.51622651261872608726831222748909
132,1.51775829754676812556656081754969
133,1.51927851178674651803459239420434
134,1.52078732889044350147669366587098
135,1.52228491853314198189622008087269
136,1.52377144662824458001863780524632
137,1.52524707543768795967382751539285
138,1.52671196367833299798874985597717
139,1.52816626662450925043592995248389
140,1.52961013620687671781499759519071
141,1.53104372110776336475451244637703
142,1.53246716685312876605426280265472
143,1.53388061590129560701891030493628
144,1.53528420772858358429691505827200
145,1.53667807891197606597949646865860
146,1.53806236320894200096355340863979
147,1.53943719163452736461640675309458
148,1.54080269253583146974691547205436
149,1.54215899166396994381321401348810
150,1.54350621224362801322015242408371
151,1.54484447504030000893572152224626
152,1.54617389842530539257113598058145
153,1.54749459843867025259253285585677
154,1.54880668884995816988026599239223
155,1.55011028121712868860202711642940
156,1.55140548494350125873592894713307
157,1.55269240733289569681964677979322
158,1.55397115364302098299927377963464
159,1.5552418271371760671834949326094
160,1.5565045291343290218130363050022
161,1.5577593590576330373365274319615
162,1.5590064144814387214643701763941
163,1.5602457911768575554701183924431
164,1.5614775831559311441045590327583
165,1.5627018827144548593102998582252
166,1.5639187804735063932958008997428
167,1.5651283654197264532584608226249
168,1.5663307249443942866404383013113
169,1.5675259448813430989779548811022
170,1.5687141095437551074299627643753
171,1.5698953017598764244170485586110
172,1.5710696029076896379986803229702
173,1.5722370929485794912896241424414
174,1.5733978504600275043996316323758
175,1.5745519526673695237995102318960
176,1.5756994754746459054364001975289
177,1.5768404934945775921058454367560
178,1.5779750800776972394468127101367
179,1.5791033073406618354754718007390
180,1.5802252461937777600266875530733
181,1.5813409663677609326592099443354
182,1.5824505364397597443799137140553
183,1.5835540238586638224308946317655
184,1.5846514949697228696452011728212
185,1.5857430150384973864643142493518
186,1.5868286482741622442063183880304
187,1.5879084578521869100517174086541
188,1.5889825059364077600307805527061
189,1.5900508537005162110692904551846
190,1.5911135613489783231366509080560
191,1.5921706881374050940139262461954
192,1.5932222923923898288499010488522
193,1.5942684315308308883176322780462
194,1.5953091620787531561180033225197
195,1.5963445396896461581523084891649
196,1.5973746191623325252265535053764
197,1.5983994544583811745707484286255
198,1.5994190987190793721142548162312
199,1.6004336042819765093327088391980
200,1.6014430226970135348274916155250
201,1.6024474047422490170164598696672
202,1.6034468004391952140473428454597
203,1.6044412590677748056157156321180
204,1.6054308291809099015490876770893
205,1.6064155586187532924690487435951
206,1.6073954945225749612284589901231
207,1.6083706833483097257490152265543
208,1.6093411708797802346639274778368
209,1.6103070022416010585931308894387
210,1.6112682219117753726501575437773
211,1.6122248737339915891369440062346
212,1.6131770009296301675486716689733
213,1.6141246461094849797765896714575
214,1.6150678512852142061922182892786
215,1.6160066578805199688376468655163
216,1.6169411067420706561723556515676
217,1.6178712381501698984119549755928
218,1.6187970918291811659016681092106
219,1.6197187069577112634533592660799
220,1.6206361221785652287667222579276
221,1.6215493756084705372170072004325
222,1.6224585048475878103674112478962
223,1.6233635469888015890296965557014
224,1.6242645386268062301635857010506
225,1.6251615158669894841496921929755
226,1.6260545143341172903689943627412
227,1.6269435691808284339273090745508
228,1.6278287150959408737161889991879
229,1.6287099863125768939454373026440
230,1.6295874166161117653756223199169
231,1.6304610393519477055048959284289
232,1.6313308874331235466147014723371
233,1.6321969933477550971624376025821
234,1.6330593891663223425704912315822
235,1.6339181065487966564949643588660
236,1.6347731767516177213255656315531
237,1.6356246306345237780265398528249
238,1.6364724986672369363122511666633
239,1.6373168109360089807195245249344
240,1.6381575971500298259754236675314
241,1.6389948866477029029901428504383
242,1.6398287084027903314058993084689
243,1.6406590910304319094553061007366
244,1.6414860627930396093451934419883
245,1.6423096516060719512562870764575
246,1.6431298850436907745056888898274
247,1.6439467903443017876367010380192
248,1.6447603944159864779690823134576
249,1.6455707238418203491040044010465
250,1.6463778048850878704829930576638
251,1.6471816634943920384063283359130
252,1.6479823253086613464043723270460
253,1.6487798156620592365584347411755
254,1.6495741595887956880216596934504
255,1.6503653818278448221627425256137
256,1.6511535068275686090926909816564
257,1.6519385587502530663123667230722
258,1.6527205614765533935328036445643
259,1.6534995386098548465121735624535
260,1.6542755134805497356071282964070
261,1.6550485091502308620888232680914
262,1.6558185484158061169490665702191
263,1.6565856538135330920763840981493
264,1.6573498476229791539533309619086
265,1.6581111518709055044004131498202
266,1.6588695883350773953969724508923
267,1.6596251785480037105088789044285
268,1.6603779438006059459199032820472
269,1.6611279051458208602636839907963
270,1.6618750834021325166781629968589
271,1.6626194991570430003165019343079
272,1.6633611727704757901561823530643
273,1.6641001243781192274978932502451
274,1.6648363738947072894490860826908
275,1.6655699410172415422487185510404
276,1.6663008452281525520624616399224
277,1.6670291057984082365393276112588
278,1.6677547417905609110539485417674
279,1.6684777720617445320800534470324
280,1.6691982152666142305412798546548
281,1.6699160898602360239432505573557
282,1.6706314141009242035357154729921
283,1.6713442060530296089316589081423
284,1.6720544835896759466990477680920
285,1.6727622643954509601663835247169
286,1.6734675659690484751678683126682
287,1.6741704056258663809998245828805
288,1.6748708005005569483446248826470
289,1.6755687675495341322070863477583
290,1.6762643235534385923708148916152
291,1.6769574851195582722953708119440
292,1.6776482686842074213410344891403
293,1.6783366905150679660763282885883
294,1.6790227667134882675631542355375
295,1.6797065132167413517447498965157
296,1.6803879458002501984767897510918
297,1.6810670800797700209068137758179
298,1.6817439315135368519333815553246
299,1.6824185154043792405808258953943
300,1.6830908469017948088725887852421
301,1.6837609410039920806189288416698
302,1.6844288125598996750291985987674
303,1.6850944762711400382548762007145
304,1.6857579466939712903706692889638
305,1.6864192382411986162973343419998
306,1.6870783651840544638634898387155
307,1.6877353416540447309574112619276
308,1.6883901816447684201946226071914
309,1.6890428990137068503640942752349
310,1.6896935074839827597970779403830
311,1.6903420206460928965584852463600
312,1.6909884519596116085910518345112
313,1.6916328147548668265580752036821
314,1.6922751222345902436562237579045
315,1.6929153874755410120384404372313
316,1.6935536234301043314866240179490
317,1.6941898429278624689363553094168
318,1.6948240586771435600961238210716
319,1.6954562832665453347207378394172
320,1.6960865291664337667939642479283
321,1.6967148087304205685530040874605
322,1.6973411341968156427824769335375
323,1.6979655176900580074149995316238
324,1.6985879712221241695751700655426
325,1.6992085066939157110454848586172
326,1.6998271358966243223780549812233
327,1.7004438705130771064050366394347
328,1.7010587221190593403401098062338
329,1.7016717021846196713262846185121
330,1.7022828220753541770940766508469
331,1.7028920930536707303033391607991
332,1.7034995262800347277898144888839
333,1.7041051328141965632518588517112
334,1.7047089236163990273796236160870
335,1.7053109095485689503388558614368
336,1.7059111013754891446402906048284
337,1.7065095097659535206199177226457
338,1.7071061452939064333611231213618
339,1.7077010184395623255451704551648
340,1.7082941395905117575495361511806
341,1.7088855190428095383505225302429
342,1.7094751670020474543591925303031
343,1.7100630935844112339586880071166
344,1.7106493088177217414289651592805
345,1.7112338226424622195726452835615
346,1.7118166449127890558156308519017
347,1.7123977853975296371201184411851
348,1.7129772537811641054135033178750
349,1.7135550596647945584365417073949
350,1.7141312125670992383304120388769
351,1.7147057219252737955461496459266
352,1.7152785970959593104203845447009
353,1.7158498473561563567755752816035
354,1.7164194819041265220006318701447
355,1.7169875098602817488756039743815
356,1.7175539402680597089090913679796
357,1.7181187820947884462134330312443
358,1.7186820442325395359052541893230
359,1.7192437354989655021568079755401
360,1.7198038646381304338048591756462
361,1.7203624403213255423726761753611
362,1.7209194711478761440934746480198
363,1.7214749656459346615358101572614
364,1.7220289322732646688133259350171
365,1.7225813794180142167342367446627
366,1.7231323153994773155490670773960
367,1.7236817484688464672959955684163
368,1.7242296868099530364622033007423
369,1.7247761385400000914963407591974
370,1.7253211117102834303371250018822
371,1.7258646143069036432576610809093
372,1.7264066542514681694949867083574
373,1.7269472394017833143707503532819
374,1.7274863775525405353738189659593
375,1.7280240764359876887648560556920
376,1.7285603437225966929096618643716
377,1.7290951870217193975430500958541
378,1.7296286138822348263653735350236
379,1.7301606317931896327646296638645
380,1.7306912481844285254201194775477
381,1.7312204704272175392140416869560
382,1.7317483058348572696123346419179
383,1.7322747616632907451670691095956
384,1.7327998451117009018319031750277
385,1.7333235633231012803361225830309
386,1.7338459233849206052596717596470
387,1.7343669323295769951356004817947
388,1.7348865971350457403670949748806
389,1.7354049247254213236331935652065
390,1.7359219219714708718765076245453
391,1.7364375956911793568011218401683
392,1.7369519526502901522436885289878
393,1.7374649995628384218902258017071
394,1.7379767430916759184211919344542
395,1.7384871898489900509426165244474
396,1.7389963463968168715557867438628
397,1.7395042192475476109581428546600
398,1.7400108148644287711941023748720
399,1.7405161396620543413313808548678
400,1.7410202000068544360045020041068
401,1.7415230022175764057287920037550
402,1.7420245525657591641855518170238
403,1.7425248572762035532015924185474
404,1.7430239225274366384964892219765
405,1.7435217544521674016260807875343
406,1.7440183591377399371406603734517
407,1.7445137426265812716605638281706
408,1.7450079109166413080470350453560
409,1.7455008699618277557279819780785
410,1.7459926256724385616406722451403
411,1.7464831839155861017921077279291
412,1.7469725505156167160092558399195
413,1.7474607312545266649221795348594
414,1.7479477318723709330080368893598
415,1.7484335580676691616417784125528
416,1.7489182154978051417694992879623
417,1.7494017097794227146738837013317
418,1.7498840464888152440512793669675
419,1.7503652311623129378949356913779
420,1.7508452692966630020891082126476
421,1.7513241663494065778807199333717
422,1.7518019277392517448137354697373
423,1.7522785588464404252491933508218
424,1.7527540650131128041779874731390
425,1.7532284515436656436687564120787
426,1.7537017237051080987731240389891
427,1.7541738867274125194997147822682
428,1.7546449458038602525264230083127
429,1.7551149060913863550196154408569
430,1.7555837727109160826468147199450
431,1.7560515507477006554176979651592
432,1.7565182452516494508476534096335
433,1.7569838612376539623208786154958
434,1.7574484036859146205693610851891
435,1.7579118775422583019209552395683
436,1.7583742877184544242857439895338
437,1.7588356390925277922279822416413
438,1.7592959365090671731660902725020
439,1.7597551847795302859820046092921
440,1.7602133886825462732307245539361
441,1.7606705529642128167787128512175
442,1.7611266823383914604942326577639
443,1.7615817814870007876601182521383
444,1.7620358550603020724555138564968
445,1.7624889076771867361397819982519
446,1.7629409439254566322621946740710
447,1.7633919683621043300398596260330
448,1.7638419855135866140787989891052
449,1.7642909998760990409157937648029
450,1.7647390159158437047943318393271
451,1.7651860380692977157416626329776
452,1.7656320707434752312661008064128
453,1.7660771183161887847183407599355
454,1.7665211851363062992357870666941
455,1.7669642755240074111132012105755
456,1.7674063937710343995683844092434
457,1.7678475441409424185793526373324
458,1.7682877308693454266590581929078
459,1.7687269581641603284606843400448
460,1.7691652302058489705255023439329
461,1.7696025511476558408653588595474
462,1.7700389251158446853983037269718
463,1.7704743562099326449751828518444
464,1.7709088485029200738702314877346
465,1.7713424060415200084373243066094
466,1.7717750328463844165949122559267
467,1.7722067329123265086217877571494
468,1.7726375102085441248693366181545
469,1.7730673686788366770527144366129
470,1.7734963122418231676256470145151
471,1.7739243447911555543101756539583
472,1.7743514701957317573564400345622
473,1.7747776922999036603989529656508
474,1.7752030149236876088647715367404
475,1.7756274418629663286519286111363
476,1.7760509768896947788443722291704
477,1.7764736237521002714216970317710
478,1.7768953861748815339125273563292
479,1.7773162678594056043354499577516
480,1.7777362724839029529679300233459
481,1.7781554037036593817766826054126
482,1.7785736651512082702540308264663
483,1.7789910604365185476144278790254
484,1.7794075931471812110620817317944
485,1.7798232668485958669611286618949
486,1.7802380850841518796557557966457
487,1.7806520513754109766763572014147
488,1.7810651692222859067706028982462
489,1.7814774421032183788108283488669
490,1.7818888734753541445730594389026
491,1.7822994667747173595376649431645
492,1.7827092254163828097640500426758
493,1.7831181527946459797106568879588
494,1.7835262522831920549015783751268
495,1.7839335272352620517930346664832
496,1.7843399809838193191174869249479
497,1.7847456168417120960792540645917
498,1.7851504381018360725060724630312
499,1.7855544480372944481264575766682
500,1.785957649901557621290261963983
501,1.786360046928618252987054619961
502,1.786761642333149161155012600861
503,1.787162439310655513214795099821
504,1.787562441037629160471049930677
505,1.787961650671697961646869986961
506,1.788360071351775825436912370601
507,1.788757706198211319897862841559
508,1.789154558312934488425790983165
509,1.789550630779600102994773226470
510,1.789945926663733407675833245159
511,1.790340449012871583291689100827
512,1.790734200856704833179564011680
513,1.791127185207215705576159285869
514,1.791519405058817328862642195892
515,1.791910863388490933744282385906
516,1.792301563155920872528818006135
517,1.792691507303628210070673621831
518,1.793080698757104671594515802627
519,1.793469140424943729170863322440
520,1.793856835198971683675254372014
521,1.794243785954375537289023781769
522,1.794629995549831932571103229690
523,1.795015466827633595088227793783
