Eigenstate,Potential Energy
1,0.500000000114890823331719776757704999
2,0.64623093840106460241511092449865551
3,0.73633761190790472165913182681819730
4,0.79966528240272159090777102624643254
5,0.8480465832339499901590140091351577
6,0.8870660091696267184827099528152590
7,0.9197208416542307438476812485541780
8,0.9477838670680816649296982161551902
9,0.9723835844194734428940630186140434
10,0.9942802478583074817350905079625090
11,1.0140094275265843464718308454207902
12,1.0319622187296896038809491667663665
13,1.0484327515340695800534528269033126
14,1.0636477236234412144598307869269902
15,1.0777855161130061059846937676638641
16,1.090988998419913970076554149786516
17,1.103374361724779044865101043375837
18,1.115037369977887744174366891457198
19,1.126057883003181992139127360486651
20,1.136503194132199752144201027686201
21,1.146430536285775187044754337811207
22,1.155888993132781009545354261831084
23,1.164920977026654814990763435075213
24,1.173563386405822531011035126149202
25,1.181848522589625817743152534894986
26,1.189804823585910618960550054436744
27,1.197457457053603642494808650629409
28,1.204828803661752725066635139158446
29,1.211938854291479205342938200179938
30,1.218805538877802852851540503905166
31,1.225445000542361395397225925171204
32,1.231871825590147099356407705934487
33,1.238099237633735050517039251147079
34,1.244139262357931515077342003444401
35,1.250002868098575693313066053839791
36,1.255700086375749298825863891653819
37,1.261240115717563846980604797219616
38,1.266631411480276792399145954011429
39,1.271881763872639005400651617988114
40,1.276998365996555293377761077446349
41,1.281987873399389399099356989130554
42,1.286856456378252306207671783151466
43,1.291609846070126337088902387500698
44,1.296253375193583512655468352373323
45,1.300792014170287074471989360416215
46,1.305230403241328786975775380249128
47,1.309572881099978025140217707806901
48,1.313823510484832288624146658857229
49,1.317986101112696239506588936680100
50,1.32206423027639364701453598021930
51,1.32606126138724966014733818353072
52,1.32998036070363561477523919117500
53,1.33382451245451846322173602268265
54,1.33759653253939578286503654496172
55,1.34129908096252182776652542513813
56,1.34493467313925551719611807008772
57,1.34850569019516228979427870490757
58,1.35201438836370456581080563203623
59,1.35546290757560161257669788922094
60,1.35885327932191510065724947037627
61,1.36218743386335241062381465943915
62,1.36546720684997874526377994219154
63,1.36869434540828721302314000230802
64,1.37187051374626356855069017374895
65,1.37499729832154745623726194133651
66,1.37807621261294466358621876171837
67,1.38110870153128259992380468577122
68,1.38409614550184505514731956503896
69,1.38703986424730962248098598023241
70,1.38994112029718290094315009552726
71,1.39280112224712988949743321509777
72,1.39562102778929574247816135742338
73,1.39840194653266504947741590698858
74,1.40114494263068495432648234404048
75,1.40385103723174732670170466249216
76,1.40652121076667564312822735680787
77,1.40915640508605983573732408506093
78,1.41175752545911656895213216425011
79,1.41432544244470558428418716411198
80,1.41686099364419462777831965315548
81,1.41936498534501613316731613850974
82,1.42183819406299738324359772668583
83,1.42428136799085713816573797870193
84,1.42669522835963742770156218015683
85,1.42908047071927992823594690443114
86,1.43143776614404047998203528468013
87,1.43376776236797782903539258623892
88,1.43607108485532930117440968185167
89,1.43834833781020261214941383460351
90,1.44060010512966980247372120634947
91,1.44282695130402783267988534847777
92,1.44502942226770207746455482391923
93,1.44720804620400670209127668173750
94,1.44936333430673297568179837834739
95,1.45149578150131542199833385029535
96,1.45360586712812388620283260031963
97,1.45569405559024525397069255005284
98,1.45776079696794568504094531553996
99,1.45980652760185075109761289650432
100,1.46183167064673452746013072648983
101,1.46383663659767938390741000043062
102,1.46582182379024264523919390004903
103,1.46778761887615837856580383924214
104,1.46973439727599529960831285169528
105,1.47166252361009871653346758976506
106,1.47357235210905366560558365109594
107,1.47546422700482831098222307509148
108,1.47733848290367744142673839919627
109,1.47919544514181730317739444250401
110,1.48103543012482058808773875762079
111,1.48285874565161453495550526643084
112,1.48466569122391566832427258668749
113,1.48645655834187916324846822667510
114,1.48823163078669206675676996202656
115,1.48999118489079915824698606362916
116,1.49173548979640189939795782521945
117,1.49346480770283921117769287238704
118,1.49517939410341778442232846155954
119,1.49687949801222591674461727930268
120,1.49856536218143902629688477807502
121,1.50023722330958672566900481386413
122,1.50189531224123242607064596357507
123,1.50353985415848424901550706328855
124,1.50517106876473834291705823596553
125,1.50678917046102613574354424398763
126,1.50839436851532185758274473975401
127,1.50998686722514608908137766330554
128,1.51156686607377850453533470542831
129,1.51313455988038090516919282453273
130,1.51469013894431325627712404387917
131,1.51623378918391003778020933167506
132,1.51776569226996924055558598905973
133,1.51928602575419455930823696701863
134,1.52079496319282005680056353965286
135,1.52229267426562846591144404500005
136,1.52377932489057060846737825972666
137,1.52525507733418010184657800331679
138,1.52672009031796391236623712782211
139,1.52817451912094720855867187989240
140,1.52961851567853552147539350283417
141,1.53105222867785266166808359249692
142,1.53247580364970476923070586136548
143,1.53388938305731222311752090582368
144,1.53529310638194395631657417280969
145,1.53668711020558453569986332593513
146,1.53807152829075649662155123333482
147,1.53944649165761221937108312005081
148,1.54081212865841067655490394750243
149,1.54216856504948085240870194984928
150,1.54351592406077547496417898062916
151,1.54485432646311097537434861417222
152,1.54618389063318397361499626561263
153,1.54750473261645324030669235713372
154,1.54881696618797103394972599247617
155,1.55012070291124204961649643668429
156,1.55141605219518784551725002691119
157,1.55270312134928779409473138385801
158,1.55398201563696837580471569464126
159,1.5552528383273044884704298322665
160,1.5565156907450991098056499675089
161,1.5577706723193998092843307714537
162,1.5590178806305115705148143264989
163,1.5602574114555607774776466126079
164,1.5614893588126650012822099341640
165,1.5627138150037571877226906753243
166,1.5639308706561147612844179667847
167,1.5651406147626408779858917346351
168,1.5663431347209405160367501442957
169,1.5675385163712364664697306142421
170,1.5687268440331649669333486062598
171,1.5699082005414911731766340993804
172,1.5710826672807823349573952401514
173,1.5722503242190740787792109170424
174,1.5734112499405656410488508969176
175,1.5745655216773780366641589717090
176,1.5757132153404048694663559917672
177,1.5768544055492890451757032850699
178,1.5779891656615545412906500565554
179,1.5791175678009196789819843486151
180,1.5802396828848228434692006007153
181,1.5813555806511833015535545649145
182,1.5824653296844248117857226177014
183,1.5835689974407850766354977830513
184,1.5846666502729352782946974686826
185,1.5857583534539315063355633389280
186,1.5868441712005190459414556327447
187,1.5879241666958133273116972154841
188,1.5889984021113729726573048017376
189,1.5900669386286886719822741850339
190,1.5911298364601035388329621985596
191,1.5921871548691841686756243990154
192,1.5932389521905587822134165824100
193,1.5942852858492407576023303688456
194,1.5953262123794508924614645454255
195,1.5963617874429563281514301849520
196,1.5973920658469398283376316578425
197,1.5984171015614137872788264310289
198,1.5994369477361931299414391682681
199,1.6004516567174399379177488851429
200,1.6014612800637937414744500930500
201,1.6024658685620984542770984432626
202,1.6034654722427393270752241090822
203,1.6044601403946005752015763389788
204,1.6054499215796552949263122694386
205,1.6064348636471976341560852370369
206,1.6074150137477302363607862194928
207,1.6083904183465128285381078577236
208,1.6093611232367861748110404481766
209,1.6103271735526771386798059566327
210,1.6112886137817963497231141952505
211,1.6122454877775358339052196958276
212,1.6131978387710768348152079170007
213,1.6141457093831122039341838451247
214,1.6150891416352983358235200418068
215,1.6160281769614358546751029641317
216,1.6169628562183930068923907081342
217,1.6178932196967757189600438856951
218,1.6188193071313532932716428164301
219,1.6197411577112430150763921650659
220,1.6206588100898661788984926577542
221,1.6215723023946734369520315376599
222,1.6224816722366566671530905727162
223,1.6233869567196409218002163248414
224,1.6242881924493715164665205138659
225,1.6251854155423988158959823189648
226,1.6260786616347642550981702759445
227,1.6269679658904962387460502944843
228,1.6278533630099177293419448208305
229,1.6287348872377726765616495047795
230,1.6296125723711759742871417665873
231,1.6304864517673887348699748902982
232,1.6313565583514292898220523866391
233,1.6322229246235149027185521175646
234,1.6330855826663503406678635612948
235,1.6339445641522564757386759291630
236,1.6347999003501486154115635137185
237,1.6356516221323681824861519118698
238,1.6364997599813694757631526329194
239,1.6373443439962669473965487658258
240,1.6381854038992451506554306386785
241,1.6390229690418356397684936786960
242,1.6398570684110636781349195256839
243,1.6406877306354687860158649753445
244,1.6415149839910008162859443796070
245,1.6423388564067959317090030974437
246,1.6431593754708350026659407686469
247,1.6439765684354858074846193684424
248,1.6447904622229366163006865825106
249,1.6456010834305161273458777878675
250,1.6464084583359101401733341013519
251,1.6472126129022728656437132704321
252,1.6480135727832356709900970106182
253,1.6488113633278183319955930620467
254,1.6496060095852424489753855650335
255,1.6503975363096509064378783741272
256,1.6511859679647334616466635078276
257,1.6519713287282648532898699031520
258,1.6527536424965518747880017315052
259,1.6535329328887962155733121710541
260,1.6543092232513734565353453325151
261,1.6550825366620285331922518652622
262,1.6558528959339923918309457451581
263,1.6566203236200186890239256071184
264,1.6573848420163459852145355941540
265,1.6581464731665839574444770204928
266,1.6589052388655257988161629745725
267,1.6596611606628900177912667735511
268,1.6604142598669916709069806976605
269,1.6611645575483472987027757225262
270,1.6619120745432092888863503829111
271,1.6626568314570389505942419735905
272,1.6633988486679122792217609253318
273,1.6641381463298658548593206499215
274,1.6648747443761800832895298451588
275,1.6656086625226036550744788731779
276,1.6663399202705175010489872692769
277,1.6670685369100457282130729630857
278,1.6677945315231052906612852434584
279,1.6685179229864058987264796938779
280,1.6692387299743922599295778128450
281,1.6699569709621365413003451349180
282,1.6706726642281785500956729099700
283,1.6713858278573168461346919473959
284,1.6720964797433479430791662016789
285,1.6728046375917604067259699608300
286,1.6735103189223798758826057068677
287,1.6742135410719700659615967240580
288,1.6749143211967861579316347106390
289,1.6756126762750852215689263161307
290,1.6763086231095944064378575708276
291,1.6770021783299347424608091992163
292,1.6776933583950034359232651478809
293,1.6783821795953185676495687213046
294,1.6790686580553212312482090431884
295,1.6797528097356371995708806353423
296,1.6804346504353057059764365824850
297,1.6811141957939652731709053560470
298,1.6817914612940059074469354040198
299,1.6824664622626844622761443910137
300,1.6831392138742049229767321725677
301,1.6838097311517640250403477859130
302,1.6844780289695643002165559011992
303,1.6851441220547917246830724911892
304,1.6858080249895615480533231685563
305,1.6864697522128337329968190209875
306,1.6871293180222972699750105388758
307,1.6877867365762205503717540245846
308,1.6884420218952752778061594043580
309,1.6890951878643300082840288667442
310,1.6897462482342136557531714303719
311,1.6903952166234525594224253490370
312,1.6910421065199786274595974282635
313,1.6916869312828099513398022016546
314,1.6923297041437056966735111477995
315,1.6929704382087945917488530582657
316,1.6936091464601783910588574367626
317,1.6942458417575078540831204000335
318,1.6948805368395365922783864781210
319,1.6955132443256499275781534645581
320,1.6961439767173687654514984504757
321,1.6967727463998324032781771660298
322,1.6973995656432563903455603961849
323,1.6980244466043689554173169569878
324,1.6986474013278249809776253975311
325,1.6992684417475992881339398093869
326,1.6998875796883574714653408626853
327,1.7005048268668071066672192952328
328,1.7011201948930265223496753810858
329,1.7017336952717761130482036835947
330,1.7023453394037886273724672078567
331,1.7029551385870398721840159529232
332,1.7035631040180008963961603459982
333,1.7041692467928720353612935884505
334,1.7047735779087970023367270629703
335,1.7053761082650613444921491114616
336,1.7059768486642713241006549096748
337,1.7065758098135160998200503154919
338,1.7071730023255142696330376101641
339,1.7077684367197408427503248822232
340,1.7083621234235407346677763043749
341,1.7089540727732245019004868101872
342,1.7095442950151488165374302563485
343,1.7101328003067813214950474624403
344,1.7107195987177498633324219121209
345,1.7113047002308779252073994197869
346,1.7118881147432037380876452547455
347,1.7124698520669866389856386815000
348,1.7130499219306974914372249026205
349,1.7136283339799967167319567323609
350,1.7142050977786974819186517885554
351,1.7147802228097161359594864516113
352,1.7153537184760095802710463254312
353,1.7159255941014988620065017749575
354,1.7164958589319804086294318735657
355,1.7170645221360252732472726216750
356,1.7176315928058646047937305233217
357,1.7181970799582645865047702610612
358,1.7187609925353900912294635602986
359,1.7193233394056528033614154785761
360,1.7198841293645527500890646302459
361,1.7204433711355049917365221419661
362,1.7210010733706579578353121039894
363,1.7215572446516980297059079117695
364,1.7221118934906453988611515520772
365,1.7226650283306394430530883529598
366,1.7232166575467125032367763400122
367,1.7237667894465549592173163866623
368,1.7243154322712683986339506626715
369,1.7248625941961115178936393682451
370,1.7254082833312344744869510594850
371,1.7259525077224045504060254131893
372,1.7264952753517220897482102135221
373,1.7270365941383266839997752268954
374,1.7275764719390979204524966957224
375,1.7281149165493413924878661087860
376,1.7286519357034714353160052403382
377,1.7291875370756823839586396208781
378,1.7297217282806115286728151374587
379,1.7302545168739956156426384831827
380,1.7307859103533176579340361079948
381,1.7313159161584469406381679033872
382,1.7318445416722693470897824927991
383,1.7323717942213126898021638771984
384,1.7328976810763620190480729615386
385,1.7334222094530685398531340736939
386,1.7339453865125528058293766894419
387,1.7344672193619979492507446997078
388,1.7349877150552368945409834428625
389,1.7355068805933342405138072471199
390,1.7360247229251600114683731527149
391,1.7365412489479556053835741989698
392,1.7370564655078955592361069289068
393,1.7375703794006426169288135133903
394,1.7380829973718946932808135977416
395,1.7385943261179266036854607731105
396,1.7391043722861262234192378917130
397,1.7396131424755247200287337466918
398,1.7401206432373208808595696281834
399,1.7406268810753981158744104310444
400,1.7411318624468384505224085276813
401,1.7416355937624295728375425736681
402,1.7421380813871656957144218939379
403,1.7426393316407450713291412159450
404,1.7431393507980620675229437461979
405,1.7436381450896912888596987641367
406,1.7441357207023698691932219383527
407,1.7446320837794750708336752901840
408,1.7451272404214947124652380267527
409,1.7456211966864933064513993457058
410,1.7461139585905764401974586330647
411,1.7466055321083476824267721386369
412,1.7470959231733616184809649904437
413,1.7475851376785741159189128777741
414,1.7480731814767862671951145858975
415,1.7485600603810863170884044456543
416,1.7490457801652860289766782319919
417,1.7495303465643543637344048885338
418,1.7500137652748456606223931845963
419,1.7504960419553266256635889346262
420,1.7509771822267971373453187365992
421,1.7514571916731088506639101690941
422,1.7519360758413809109359274595924
423,1.7524138402424106443422144062417
424,1.7528904903510828708186896950226
425,1.7533660316067742516177230148000
426,1.7538404694137563124948671762482
427,1.7543138091415946624379831239490
428,1.7547860561255444581408269155695
429,1.7552572156669460643901094651916
430,1.7557272930336138115863471877841
431,1.7561962934602253945369519411806
432,1.7566642221487091039615604853749
433,1.7571310842686242720077283143039
434,1.7575968849575460746697218853830
435,1.7580616293214425613650375511151
436,1.7585253224350518608971561192234
437,1.7589879693422577751671152449363
438,1.7594495750564627945195139514034
439,1.7599101445609592697219256104204
440,1.7603696828092998674748751719733
441,1.7608281947256645270336527999620
442,1.7612856852052275414650217696605
443,1.7617421591145244733294116802996
444,1.7621976212918135885887824461781
445,1.7626520765474412062589216795444
446,1.7631055296642020575164545711426
447,1.7635579853977018954616972034262
448,1.7640094484767156484891503676824
449,1.7644599236035490354121437939779
450,1.7649094154543958754035142809128
451,1.7653579286796986796083675063029
452,1.7658054679045054527840767583623
453,1.7662520377288285384693800474330
454,1.7666976427280019906111986517947
455,1.7671422874530411932298755801463
456,1.7675859764310001267021462358326
457,1.7680287141653310820197063848745
458,1.7684705051362433288260367431866
459,1.7689113538010633654804893480793
460,1.7693512645945965124759499795662
461,1.7697902419294878227820803772334
462,1.7702282901965856510781323170739
463,1.7706654137653066199010178272355
464,1.7711016169840002834229066147154
465,1.7715369041803176032544402849852
466,1.7719712796615805187290150357954
467,1.7724047477151520503471692230054
468,1.7728373126088121169090284217892
469,1.7732689785911317149322029332127
470,1.7736997498918531641829428640377
471,1.7741296307222708734583049182121
472,1.7745586252756171193527568073092
473,1.7749867377274483925769834397108
474,1.7754139722360400284019184031395
475,1.7758403329427782659636465698616
476,1.7762658239725624820687036010549
477,1.7766904494342081746645834526429
478,1.7771142134208556250522102682950
479,1.7775371200103833926974872460221
480,1.7779591732658273137747126014135
481,1.7783803772358038434641455449426
482,1.7788007359549416132820038569031
483,1.7792202534443168999096711388773
484,1.7796389337118961564956075531303
485,1.7800567807529874300411481646570
486,1.7804737985506956127487961883226
487,1.7808899910763887564234487604309
488,1.7813053622901704448923673428626
489,1.7817199161413618701315138700790
490,1.7821336565689919129748891525883
491,1.7825465875022978216843203523250
492,1.7829587128612355580883271256253
493,1.7833700365570002915255786346740
494,1.7837805624925586649575418900744
495,1.7841902945631915825170941637404
496,1.7845992366570513477266320272376
497,1.7850073926557294522435008435710
498,1.7854147664348396061008789130439
499,1.7858213618646141855649039100532
500,1.786227182810516942883663530377
501,1.786632233133868474962415384398
502,1.787036516692492696337135923238
503,1.787440037341376616508759851898
504,1.787842798933352141568160577703
505,1.788244805319793670410192831569
506,1.788646060351338188271498207025
507,1.789046567878626730911086011330
508,1.789446331753067940714433516725
509,1.789845355827623086402154991681
510,1.790243643957619803604903697374
511,1.790641200001589058576341869075
512,1.791038027822130577951310992936
513,1.791434131286806779061657910704
514,1.791829514269067377008802836703
515,1.792224180649206628813453884080
516,1.792618134315353102968468170744
517,1.793011379164494825099475577212
518,1.793403919103543465588940025988
519,1.793795758050436343179827765608
520,1.794186899935281212651723112090
521,1.794577348701542870117411736400
522,1.794967108307278226460473006059
523,1.795356182726418805698130248428
