Eigenstate,Potential Energy
1,0.500000000049282476898094455425126460
2,0.64623093797280507110150166541671888
3,0.73633761064991579101195983666556378
4,0.79966527978244257626456472224070108
5,0.8480465786950205293154096353791911
6,0.8870660021459051013717084026773435
7,0.9197208315749525609866802161085896
8,0.9477838533600052143807817250057599
9,0.9723835665078718671610221603484198
10,0.9942802251674672706090044519631459
11,1.0140093994800714525747195915341373
12,1.0319621847504971302663056598661009
13,1.0484327110447009882473330141810201
14,1.0636476760459564173929457539221659
15,1.0777854608690451629653950143676544
16,1.090988934930706705248855010652858
17,1.103374289411145501749479990238390
18,1.115037288260232487237461916107011
19,1.126057791301484162347846640570027
20,1.136503091866000119656670873688669
21,1.146430422874161032455317413364774
22,1.155888867994369402535505598996555
23,1.164920839579574687584681310553075
24,1.173563236067695827873438861015574
25,1.181848358777547927660372439777330
26,1.189804645716430237232841088656461
27,1.197457264542702175511282341490590
28,1.204828595924823320732243546589434
29,1.211938630743305472932780102421079
30,1.218805298932537321046656687091789
31,1.225444743613503746190890334056097
32,1.231871551090522207165637711570441
33,1.238098944975470849459981315740761
34,1.244138950952436712466275434525504
35,1.250002537356517343594316172604969
36,1.255699735707030249203316125919057
37,1.261239744531300063591784208083092
38,1.266631019184774574026539947276537
39,1.271881349875372090187122013898328
40,1.276997929704141862791588971452495
41,1.281987414217568982399502827882226
42,1.286855973711862587845242467578613
43,1.291609339323079868810004028249805
44,1.296252843768844331514969525850304
45,1.300791457469847227504578065388564
46,1.305229820666184762882737274368986
47,1.309572272050107093023572616402528
48,1.313822874359168743522805319757695
49,1.317985437309107554253420426479184
50,1.32206353819165652973140240532419
51,1.32606054041702601652120249184135
52,1.32997961024244841410809993831550
53,1.33382373189572750711620431471062
54,1.33759572127517337529272914952743
55,1.34129823838382834516561069561617
56,1.34493379863581487715504564876007
57,1.34850478315543731679931455442708
58,1.35201344817487225246351451216318
59,1.35546193362352827462364449378845
60,1.35885227099113142411575758204464
61,1.36218639053702838923464122465917
62,1.36546612790989850645261688315524
63,1.36869323023482373050797342886937
64,1.37186936171835325969016058646514
65,1.37499610881666466217577639799101
66,1.37807498500707601021494644268533
67,1.38110743519890123764168248773559
68,1.38409483981588477537302567055915
69,1.38703851857913884883489280107456
70,1.38993973401657855298808448382108
71,1.39279969472225111689702185417201
72,1.39561955838665752740337410821152
73,1.39840043461711167506348626296311
74,1.40114338756536333695534427927239
75,1.40384943837808020985789748666225
76,1.40651956748433465054997462460153
77,1.40915471673293838155804740744172
78,1.41175579139130262250166268698317
79,1.41432366201645428719308292779165
80,1.41685916620790076100304330360740
81,1.41936311025118643152804219555240
82,1.42183627066022269504080203181322
83,1.42427939562578442741587417078391
84,1.42669320637694161650620015488158
85,1.42907839846163557677268117363080
86,1.43143564295209330157934008285538
87,1.43376558758031603776694701416669
88,1.43606885780845478938204672768896
89,1.43834605783850195527684706258729
90,1.44059777156538508856615945960469
91,1.44282456347722731387684742876443
92,1.44502697950625064078601731571561
93,1.44720554783353615678863855592995
94,1.44936077965061215439707239600046
95,1.45149316988062009294604921774871
96,1.45360319786160647356004212344396
97,1.45569132799430436363065362739770
98,1.45775801035659543285653136005415
99,1.45980368128668989070962975863089
100,1.46182876393691537477517174189952
101,1.46383366879987653525848838492664
102,1.46581879420862148623068777756334
103,1.46778452681234338057216645171904
104,1.46973124202903810086292135823610
105,1.47165930447644598471119945391186
106,1.47356906838251473876878314349917
107,1.47546087797654261372561800171308
108,1.47733506786208167302201730479711
109,1.47919196337261239448287312773126
110,1.48103188091093842395283037083267
111,1.48285512827318443881320396857274
112,1.48466200495823064562784153040089
113,1.48645280246336190037108607447683
114,1.48822780456686068193467891167531
115,1.48998728759823270110789470086741
116,1.49173152069670559557705949618186
117,1.49346076605860944848380252308940
118,1.49517527917420683697577037544015
119,1.49687530905450640346751051479831
120,1.49856109844856810009409836673452
121,1.50023288405176998959579212248926
122,1.50189089670548757273951964205426
123,1.50353536158860441945079909843956
124,1.50516649840125520102113465693649
125,1.50678452154117265449295404562618
126,1.50838964027299481302647500856964
127,1.50998205889086825816660970672374
128,1.51156197687466056273818369088345
129,1.51312958904008301985960692918987
130,1.51468508568300637169795919377912
131,1.51622865271823684747025962737418
132,1.51776047181300484299546301750367
133,1.51928072051540679251678507988274
134,1.52078957237802950755635906732780
135,1.52228719707696814922089373069887
136,1.52377376052644531284687278764462
137,1.52524942498922539593070355854405
138,1.52671434918300480829800583935991
139,1.52816868838295647756131536270172
140,1.52961259452059165694668871370706
141,1.53104621627909748508012551534227
142,1.53246969918530067405759948007267
143,1.53388318569839905195325905175195
144,1.53528681529559550628336354937537
145,1.53668072455476468718444753850507
146,1.53806504723427496031350898689299
147,1.53943991435007989651183739319677
148,1.54080545425019462724093227220915
149,1.54216179268665886672476347395584
150,1.54350905288509024165518157108402
151,1.54484735561192384269425891955496
152,1.54617681923942829692174754293936
153,1.54749755980858731090019294117274
154,1.54880969108993058357749728772325
155,1.55011332464239232499763223782111
156,1.55140856987027524715997211444320
157,1.55269553407839107360731850855742
158,1.55397432252544938582099615320394
159,1.5552450384757584792328728219968
160,1.5565077832493045663688891025893
161,1.5577626562702678232196266943561
162,1.5590097551140347399142510590311
163,1.5602491755527616289717794475216
164,1.5614810115995439276998844370007
165,1.5627053555512398949335921276792
166,1.5639222980299992176776456464916
167,1.5651319280235437599470059483151
168,1.5663343329242431426944426280912
169,1.5675295985670302168903780067569
170,1.5687178092661961728465854419287
171,1.5698990478511054802192006086877
172,1.5710733957008685253247434608327
173,1.5722409327780073480749509988335
174,1.5734017376611503220199825266962
175,1.5745558875767897624085502326729
176,1.5757034584301321685931502507007
177,1.5768445248350743612935122389112
178,1.5779791601433346690900357057159
179,1.5791074364727656090687036801779
180,1.5802294247348790079921197325127
181,1.5813451946616062125584131232656
182,1.5824548148313210841094154599433
183,1.5835583526941488270374994633301
184,1.5846558745965848924033020265088
185,1.5857474458054457648632889945615
186,1.5868331305311726015021746601137
187,1.5879129919505115230436560879401
188,1.5889870922285859937293894600925
189,1.5900554925403850209297691122911
190,1.5911182530916828255366839229337
191,1.5921754331394092056624296907243
192,1.5932270910114869758196577860736
193,1.5942732841261547854013031839583
194,1.5953140690107886572140750693885
195,1.5963495013202401783940828433050
196,1.5973796358547050355745885571259
197,1.5984045265771362695960517568557
198,1.5994242266302164117065579223481
199,1.6004387883529013350757217137061
200,1.6014482632965497617899755853396
201,1.6024527022406494017155005744320
202,1.6034521552081530993479988245321
203,1.6044466714804356433382594792409
204,1.6054362996118828535632802728203
205,1.6064210874441229110622290291561
206,1.6074010821199129495424677651081
207,1.6083763300966867790887759402621
208,1.6093468771597779634885973693742
209,1.6103127684353239940090103587208
210,1.6112740484028630552326891246348
211,1.6122307609076307419176267099297
212,1.6131829491725669540111099252637
213,1.6141306558100373477146744495966
214,1.6150739228332843182919728777654
215,1.6160127916676067208530873685830
216,1.6169473031612822835749435168614
217,1.6178774975962366724016058881166
218,1.6188034146984681796771705416565
219,1.6197250936482313096489724692201
220,1.6206425730899917689709281250091
221,1.6215558911421507644994100629400
222,1.6224650854065558057488699018748
223,1.6233701929777915728408096044861
224,1.6242712504522659092464048101395
225,1.6251682939370934958677300777718
226,1.6260613590587807444004438575271
227,1.6269504809717205528267538824366
228,1.6278356943664987332405530553520
229,1.6287170334780192641503300245900
230,1.6295945320934530534988907893947
231,1.6304682235600120016650418661903
232,1.6313381407925587733626521113587
233,1.6322043162810472639362493316302
234,1.6330667820978099061137601574904
235,1.6339255699046849883111944006692
236,1.6347807109599936832519700166899
237,1.6356322361253704070226155348983
238,1.6364801758724482395701717378133
239,1.6373245602894048422151946472586
240,1.6381654190873710255915391788542
241,1.6390027816067062493544378336512
242,1.6398366768231439096000810338249
243,1.6406671333538104447635068219027
244,1.6414941794631199482223238522103
245,1.6423178430685486607106686333716
246,1.6431381517462918611027827467359
247,1.6439551327368045373441714417648
248,1.6447688129502334180767713168093
249,1.6455792189717353334659214528208
250,1.6463863770666922893423489130160
251,1.6471903131858211540786922924628
252,1.6479910529701807561075770906773
253,1.6487886217560814636925900169410
254,1.6495830445798969032172954636524
255,1.6503743461827816954292081630423
256,1.6511625510152952944143754123097
257,1.6519476832419383200552310814004
258,1.6527297667455978280384340198489
259,1.6535088251319083202728417165997
260,1.6542848817335288814305540240088
261,1.6550579596143367546772684078343
262,1.6558280815735420813336306365086
263,1.6565952701497226543634432841646
264,1.6573595476247841358568003609207
265,1.6581209360278442630499706179567
266,1.6588794571390432099297130690833
267,1.6596351324932833169687459721012
268,1.6603879833838982220068381570510
269,1.6611380308662556614920037569513
270,1.6618852957612896655214871155136
271,1.6626297986589714299348913599428
272,1.6633715599217128443192832591058
273,1.6641105996877101183367596337209
274,1.6648469378742247146879412858313
275,1.6655805941808054635870317010513
276,1.6663115880924501363976573613099
277,1.6670399388827139617391503683853
278,1.6677656656167568380083032012383
279,1.6684887871543407447815816550326
280,1.6692093221527694459651427962294
281,1.6699272890697783735166526503310
282,1.6706427061663721880090108377857
283,1.6713555915096132284840534440802
284,1.6720659629753580081336823327446
285,1.6727738382509485630715907046046
286,1.6734792348378546789430895861002
287,1.6741821700542720546673407928933
288,1.6748826610376728050915859992924
289,1.6755807247473129506246159014599
290,1.6762763779666976263809152992703
291,1.6769696373060018517801204883737
292,1.6776605192044497455124428404911
293,1.6783490399326560916493841676014
294,1.6790352155949252938204782332880
295,1.6797190621315098046045248335338
296,1.6804005953208356157031707511494
297,1.6810798307816847406259997282395
298,1.6817567839753440066461425083470
299,1.6824314702077169588874667257823
300,1.6831039046314006271546969754636
301,1.6837741022477275669482045730430
302,1.6844420779087752676020153181806
303,1.6851078463193401006795334883606
304,1.6857714220388793861618544822422
305,1.6864328194834230049619777211998
306,1.6870920529274538209911977911631
307,1.6877491365057540947582251496081
308,1.6884040842152253669569765593962
309,1.6890569099166779013366402495214
310,1.6897076273365900220285258501687
311,1.6903562500688409402614176398980
312,1.6910027915764145836274468695428
313,1.6916472651930758206765606293069
314,1.6922896841250208851434365606781
315,1.6929300614525013194809717449183
316,1.6935684101314228133729189908815
317,1.6942047429949164758626997926091
318,1.6948390727548878923752077510443
319,1.6954714120035411082265081564660
320,1.6961017732148775399126958898296
321,1.6967301687461737331457029369574
322,1.6973566108394340821018732668368
323,1.6979811116228220239560930568224
324,1.6986036831120686858778278981906
325,1.6992243372118607465044854445399
326,1.6998430857172057491557182846286
327,1.7004599403147776875812583060854
328,1.7010749125842400534736124299858
329,1.7016880139995513206432590659834
330,1.7022992559302492975601726599000
331,1.7029086496427157868776359086704
332,1.7035162063014226132020245602329
333,1.7041219369701593976864015549834
334,1.7047258526132412634948954928399
335,1.7053279640967007870938176064758
336,1.7059282821894602534460745537245
337,1.7065268175644870873794190848705
338,1.7071235807999335200067301611040
339,1.7077185823802565547309144300575
340,1.7083118326973243242025839070517
341,1.7089033420515045518355545634665
342,1.7094931206527376150582178450698
343,1.7100811786215938481186737508686
344,1.7106675259903150781810096286386
345,1.7112521727038422140777015302326
346,1.7118351286208263625443817950485
347,1.7124164035146270373272695162824
348,1.7129960070742942729214356177452
349,1.7135739489055381878971934441836
350,1.7141502385316835401910907264985
351,1.7147248853946113620000274165495
352,1.7152978988556873566809269948690
353,1.7158692881966763420718402108352
354,1.7164390626206441547496713196610
355,1.7170072312528473805481829751561
356,1.7175738031416091211656036746797
357,1.7181387872591840359496727645132
358,1.7187021925026119029095316475103
359,1.7192640276945554441442728950344
360,1.7198243015841313536600505928297
361,1.7203830228477262724962124631671
362,1.7209402000898041928167671022235
363,1.7214958418436998866350505307323
364,1.7220499565724033832224038980817
365,1.7226025526693337316279901611975
366,1.7231536384591009260376626334180
367,1.7237032221982588860443225551277
368,1.7242513120760462806220528062072
369,1.7247979162151198284130608164554
370,1.7253430426722757875682352957025
371,1.7258866994391624885183022238908
372,1.7264288944429828662233061716894
373,1.7269696355471869586855236963258
374,1.7275089305521586802772220433095
375,1.7280467871958875615259639689423
376,1.7285832131546369116467254324790
377,1.7291182160436001931086457022852
378,1.7296518034175487757229217224331
379,1.7301839827714729101332928573755
380,1.7307147615412126775537336185993
381,1.7312441471040817912703670000048
382,1.7317721467794813681598150135351
383,1.7322987678295083449704672181703
384,1.7328240174595535031522075315575
385,1.7333479028188927235775532432258
386,1.7338704310012721298930446916173
387,1.7343916090454828699281772404535
388,1.7349114439359294720496927397172
389,1.7354299426031924512374932256837
390,1.7359471119245823540817514031571
391,1.7364629587246855597334019273303
392,1.7369774897759054452811842187918
393,1.7374907117989963891361255595458
394,1.7380026314635891936183175883943
395,1.7385132553887107837170881617444
396,1.7390225901432978329926906715794
397,1.7395306422467039466287441916658
398,1.7400374181692004098753674252978
399,1.7405429243324690677765388157840
400,1.7410471671100916362509039229732
401,1.7415501528280314935511655808572
402,1.7420518877651086974326557822176
403,1.7425523781534710488828941140430
404,1.7430516301790590956167772028743
405,1.7435496499820625409031602467693
406,1.7440464436573741668737897548459
407,1.7445420172550383891582390018855
408,1.7450363767806919461642623182520
409,1.7455295281959995842059652482845
410,1.7460214774190872530879066225741
411,1.7465122303249670722951648394807
412,1.7470017927459576505118736642751
413,1.7474901704721008376655522088880
414,1.7479773692515713334821294496028
415,1.7484633947910834366559069038945
416,1.7489482527562913644126926263955
417,1.7494319487721859911004499896210
418,1.7499144884234851691944403544110
419,1.7503958772550219113821295296842
420,1.7508761207721254158074632546981
421,1.7513552244409988868149843418689
422,1.7518331936890934329615500079734
423,1.7523100339054758786009872293378
424,1.7527857504411941029340373214994
425,1.7532603486096362860560964401318
426,1.7537338336868876690190862780334
427,1.7542062109120823127124708039118
428,1.7546774854877498694367514069812
429,1.7551476625801612797377682938771
430,1.7556167473196662567989675074029
431,1.7560847448010300622337003928518
432,1.7565516600837667229901350628485
433,1.7570174981924640274624216892581
434,1.7574822641171113989473165726436
435,1.7579459628134184703263535776706
436,1.7584085992031322611731291460058
437,1.7588701781743511188689594052511
438,1.7593307045818344060074193420350
439,1.7597901832473086156138431339836
440,1.7602486189597709856177160286263
441,1.7607060164757877726611459877778
442,1.7611623805197907491217811083903
443,1.7616177157843715712844371474126
444,1.7620720269305686382744194117349
445,1.7625253185881557726581667778762
446,1.7629775953559237473114339763670
447,1.7634288618019618279804442875335
448,1.7638791224639325499984084534576
449,1.7643283818493475699270461635109
450,1.7647766444358367448368248581293
451,1.7652239146714179425954718175411
452,1.7656701969747604247947095901072
453,1.7661154957354475456753525081441
454,1.7665598153142351562896498632035
455,1.7670031600433093380743937023979
456,1.7674455342265387631364441208960
457,1.7678869421397263772682174012885
458,1.7683273880308568019059355216208
459,1.7687668761203419692786099833128
460,1.7692054106012646334200038381430
461,1.7696429956396176071020839060705
462,1.7700796353745419380852826202527
463,1.7705153339185626288046636396804
464,1.7709500953578200607542525004470
465,1.7713839237523010926688074233765
466,1.7718168231360669635713901976723
467,1.7722487975174772815808509922685
468,1.7726798508794151145061290566040
469,1.7731099871795056593213397242085
470,1.7735392103503360154600765194385
471,1.7739675242996703294506357183813
472,1.7743949329106646089212631745460
473,1.7748214400420765573051606632300
474,1.7752470495284779336761145686235
475,1.7756717651804583609171924793725
476,1.7760955907848330964786589775358
477,1.7765185301048450991888765153254
478,1.7769405868803660685801730493985
479,1.7773617648280953465947702112971
480,1.7777820676417570767477157236096
481,1.7782014989922941721247129061007
482,1.7786200625280626615140898463482
483,1.7790377618750217941965025932517
484,1.7794546006369227236808088192611
485,1.7798705823954972478098863825878
486,1.7802857107106411905857567454941
487,1.7806999891205992750664995520801
488,1.7811134211421460844016232909035
489,1.7815260102707663397005438144399
490,1.7819377599808323583807756530772
491,1.7823486737257808278191818394314
492,1.7827587549382874830357887965499
493,1.7831680070304396639831037090373
494,1.7835764333939078470512301608018
495,1.7839840374001143438675974494563
496,1.7843908224004024124152700630518
497,1.7847967917262014665945760109129
498,1.7852019486891923301145120313591
499,1.7856062965814700326660477242906
500,1.786009838675706279507663160255
501,1.786412578225307341139994794801
502,1.786814518464574818904826960023
503,1.787215662608860755302634577040
504,1.787616013854724933552011665704
505,1.788015575380087214552742236578
506,1.788414350344380642056815761888
507,1.788812341888703164804073285628
508,1.789209553135967616329462999084
509,1.789605987191048184096338384125
510,1.790001647140929421973138713411
511,1.790396536054851037936307838128
512,1.790790656984452358012398166729
513,1.791184012963915083045587621366
514,1.791576607010105015620017663902
515,1.791968442122713132326037956688
516,1.792359521284394212679910017275
517,1.792749847460904100430008658580
518,1.793139423601237383654715185246
519,1.793528252637762276649027294507
520,1.793916337486355561676473589286
521,1.794303681046534386923385820693
522,1.794690286201589197988389108108
523,1.795076155818714241232058260944
