Eigenstate,Potential Energy
1,0.500000000020559983612714296568251057
2,0.64623093778531941079592070379359361
3,0.73633761009919091410102297229812430
4,0.79966527863534303610422013805516180
5,0.8480465767080038565272502998349183
6,0.8870659990711630403280640042584206
7,0.9197208271626736559464989550056111
8,0.9477838473593182419335262332462696
9,0.9723835586672843866696961866770221
10,0.9942802152350880728892934236684541
11,1.0140093872037312774432361491031062
12,1.0319621698778175431611798121738624
13,1.0484326933231350341639612307006097
14,1.0636476552228130323247652009766014
15,1.0777854366915037862494764171415353
16,1.090988907145825736283218654547414
17,1.103374257765866752217649849889082
18,1.115037252501382947470134960144324
19,1.126057751175775917148444246247832
20,1.136503047120028958320677593030353
21,1.146430373254404117467005408443077
22,1.155888813247182246482950252132045
23,1.164920779451187612690679120361437
24,1.173563170304210032302847847386025
25,1.181848287124931248490445713763713
26,1.189804567920512676155015328790951
27,1.197457180349171236500031231808002
28,1.204828505079219196835674451892300
29,1.211938532991016110545498218037635
30,1.218805194018793383539659267572441
31,1.225444631283373493931832010604913
32,1.231871431088906307308155105441324
33,1.238098817047097126093055335515694
34,1.244138814841854845567509603155708
35,1.250002392808093523562187303754430
36,1.255699582464941792435398671789933
37,1.261239582339529993542362778289389
38,1.266630847787106171354284307691514
39,1.271881169015383414943911344745411
40,1.276997739125200251071204435708844
41,1.281987213662825519432625503467600
42,1.286855762924246559173950285094266
43,1.291609118045293190884727724434544
44,1.296252611743355962817142249207829
45,1.300791214438887561099125935419654
46,1.305229566371740001138397948131724
47,1.309572006233913605099801474421704
48,1.313822596762707406104675822977806
49,1.317985147673598075916722741638814
50,1.32206323625805175923588939105981
51,1.32606022592600623525797797010330
52,1.32997928293441561286563982452971
53,1.33382339151079964727658139898838
54,1.33759536755317863452393035986600
55,1.34129787106429934763632157666042
56,1.34493341745798290826389659954803
57,1.34850438785822652238065460188045
58,1.35201303849689382240542982150508
59,1.35546150930307461081101404720367
60,1.35885183176617029259074335817071
61,1.36218593614519705644906518833560
62,1.36546565808849785947066991587459
63,1.36869274472081238100353268959702
64,1.37186886024834163157027909670100
65,1.37499559112690906265044901098703
66,1.37807445083347268412301856110014
67,1.38110688427698040483347346450054
68,1.38409427188080465094181979890403
69,1.38703793336567964598167041296149
70,1.38993913125913646829705339411823
71,1.39279907415483229779279584449561
72,1.39561891974287202155494990294564
73,1.39839977763016736149447780143217
74,1.40114271196805983861494858614787
75,1.40384874390280278740218953488041
76,1.40651885386304807707879707974070
77,1.40915398369718079804845144033202
78,1.41175503867217937367492212795365
79,1.41432288934463173754853007138922
80,1.41685837331360009074847878571598
81,1.41936229686417741213293108727743
82,1.42183543650981744413527044929245
83,1.42427854044083114275536487481045
84,1.42669232988581828871858665595099
85,1.42907750039224368060166774660036
86,1.43143472303185146533520211563987
87,1.43376464553615369069275236855326
88,1.43606789336680578664084027219099
89,1.43834507072529818026262569446166
90,1.44059676150605003223879352381182
91,1.44282353019666963081852008479371
92,1.44502592272885768167423348220101
93,1.44720446728316747697828854607007
94,1.44935967505059299830156651170914
95,1.45149204095373485390499778137435
96,1.45360204433009212887859427240113
97,1.45569014957984388447297190887847
98,1.45775680678031116867363011524733
99,1.45980245226913692787913817151022
100,1.46182750919807486912832071926175
101,1.46383238805914901816702461808823
102,1.46581748718482014392401391472019
103,1.46778319322368730635260985529878
104,1.46972988159314551988434072137998
105,1.47165791691032745098390325723441
106,1.47356765340256630405107692640401
107,1.47545943529853896795979562145368
108,1.47733359720116925597018615181078
109,1.47919046444330247821524671400898
110,1.48103035342710016583876094657442
111,1.48285357194803790466252026658035
112,1.48466041950433980262745881790455
113,1.48645118759262757945923752032738
114,1.48822615999051350925245189284666
115,1.48998561302682599816508864743282
116,1.49172981584010824776662084422658
117,1.49345903062599874157637332540481
118,1.49517351287406126122322022815804
119,1.49687351159459842494137543907021
120,1.49855926953595689888205805975819
121,1.50023102339279416447658986014166
122,1.50188900400575781195369238608723
123,1.50353343655299613718174707946703
124,1.50516454073390113919812642044643
125,1.50678253094545544952462330209684
126,1.50838761645153952707038490390961
127,1.50998000154553487453742647775908
128,1.51155988570653644505387101679301
129,1.51312746374947533452196800220420
130,1.51468292596943447330067473831032
131,1.51622645828042462672452245737447
132,1.51775824234887303675966314731643
133,1.51927845572206525551406371653992
134,1.52078727195176944535995170211644
135,1.52228486071325431208411514744768
136,1.52377138791990814995132014148105
137,1.52524701583365316962249865866853
138,1.52671190317133566787878691550968
139,1.52816620520727049219684013564638
140,1.52961007387210280725264303504532
141,1.53104365784814561294100434636557
142,1.53246710266134339023089832887306
143,1.53388055077000360100752911540896
144,1.53528414165043058841494801967614
145,1.53667801187959223645404523111560
146,1.53806229521494187883972763687515
147,1.53943712267150974415520275906693
148,1.54080262259637926630778243809389
149,1.54215892074065006121651594093425
150,1.54350614032899121058467452357885
151,1.54484440212688076698632638594949
152,1.54617382450562177941164747457913
153,1.54749452350522378893892026557749
154,1.54880661289523369374913494364457
155,1.55011020423359421944941168388792
156,1.55140540692360786104135053098624
157,1.55269232826907734311035980028414
158,1.55397107352769441630958923937766
159,1.5552417459627406629440676030948
160,1.5565044468931666491648999539877
161,1.5577592757421079198647181418654
162,1.5590063300838972973458818627245
163,1.5602457056896283370309047817588
164,1.5614774965713245767802931484097
165,1.5627017950247631800055542597852
166,1.5639186916710034881362420719616
167,1.5651282754966677147306751864701
168,1.5663306338930164701139308920126
169,1.5675258526938641786038410537739
170,1.5687140162123741314108134109712
171,1.5698952072767733696423622451194
172,1.5710695072650252640403625395120
173,1.5722369961384951937518448823917
174,1.5733977524746451676174083700395
175,1.5745518534987913728802781593165
176,1.5756993751149543576388533600293
177,1.5768403919358351075502334883705
178,1.5779749773119461711508775218351
179,1.5791032033599242787101785189485
180,1.5802251409900554009858032940221
181,1.5813408599330348964368143814529
182,1.5824504287659904422498417868675
183,1.5835539149377907984220766639390
184,1.5846513847936646464068344675332
185,1.5857429035991513104147441524550
186,1.5868285355634043299594876480555
187,1.5879083438618716841149688644859
188,1.5889823906583681037677557376475
189,1.5900507371265632029216615465171
190,1.5911134434709010800983553985116
191,1.5921705689469706123514952274240
192,1.5932221718813428240624754245387
193,1.5942683096908936343302156795745
194,1.5953090389016253237013930732770
195,1.5963444151670046525631646542826
196,1.5973744932858313230610247319915
197,1.5983993272196511598249374542340
198,1.5994189701097281714448603103461
199,1.6004334742935883265110801289654
200,1.6014428913211489843802652173507
201,1.6024472719704449570459892729370
202,1.6034466662629645782249431035571
203,1.6044411234786064343407972732010
204,1.6054306921702683722671845064959
205,1.6064154201780787491416787440223
206,1.6073953546432829429476842348765
207,1.6083705420217909944895805405454
208,1.6093410280974006021657133037135
209,1.6103068579947012123666857898215
210,1.6112680761916707010979632126275
211,1.6122247265319720057830583192565
212,1.6131768522369599343692980476278
213,1.6141244959174025296240707812695
214,1.6150676995849319643049327165402
215,1.6160065046632241734281814711636
216,1.6169409519989211780863169690872
217,1.6178710818723000598496757400706
218,1.6187969340076975581950165102894
219,1.6197185475836935638898740009259
220,1.6206359612430660164530850510313
221,1.6215492131025151079739873088584
222,1.6224583407621739906481817505043
223,1.6233633813148995488534959568525
224,1.6242643713553582950565425359075
225,1.6251613469889099460846196395300
226,1.6260543438402922176958847844676
227,1.6269433970621154802861972155894
228,1.6278285413431690859239634251196
229,1.6287098109165465188481415302869
230,1.6295872395675940556577144425218
231,1.6304608606416847244468885259328
232,1.6313307070518279717904567910803
233,1.6321968112861100230674531224753
234,1.6330592054149810821723036730335
235,1.6339179210983825416968438475549
236,1.6347729895927239023345296280024
237,1.6356244417577130216166908362249
238,1.6364723080630414229743055791629
239,1.6373166185949301006874550499765
240,1.6381574030625379741208820983522
241,1.6389946908042372725754133423244
242,1.6398285107937587066860071981263
243,1.6406588916462104571197933517383
244,1.6414858616239726687900275516658
245,1.6423094486424718236763152604680
246,1.6431296802758375107979279324317
247,1.6439465837624429751046900310940
248,1.6447601860103370258184740687505
249,1.6455705136025622727194660621290
250,1.6463775928023700744763494629673
251,1.6471814495583300984259660108806
252,1.6479821095093372896956260491014
253,1.6487795979895213212647441158974
254,1.6495739400330581812161724119688
255,1.6503651603788877765999038303660
256,1.6511532834753376386693406835672
257,1.6519383334846591202276995879501
258,1.6527203342874725291365441842550
259,1.6534993094871280008301954432483
260,1.6542752824139824955336145217594
261,1.6550482761295932332340391278352
262,1.6558183134308322911316757671451
263,1.6565854168539212134492335406110
264,1.6573496086783910837513733626762
265,1.6581109109309665842995096708859
266,1.6588693453893762094721385506966
267,1.6596249335860918457804565481223
268,1.6603776968119977514760291608672
269,1.6611276561199932049473395455919
270,1.6618748323285245453270255716531
271,1.6626192460250558885436651089138
272,1.6633609175694724976597022720204
273,1.6640998670974242498871076170872
274,1.6648361145236064085754427606609
275,1.6655696795449815750287927881977
276,1.6663005816439410977807472207939
277,1.6670288400914134226182458369945
278,1.6677544739499111372784654676402
279,1.6684775020765282132641316003353
280,1.6691979431258795376233171927239
281,1.6699158155529906234975289268378
282,1.6706311376161349956867458173011
283,1.6713439273796224636582490811701
284,1.6720542027165354385147830405135
285,1.6727619813114201011631579934456
286,1.6734672806629284464088135747383
287,1.6741701180864162622479741518341
288,1.6748705107164934461136780849386
289,1.6755684755095313061201873485524
290,1.6762640292461275798134792950368
291,1.6769571885335270113483004349808
292,1.6776479698080003719785967467725
293,1.6783363893371858296163328822460
294,1.6790224632223877043533470079348
295,1.6797062074008346970713933698701
296,1.6803876376479051766806423570528
297,1.6810667695793094576914304363467
298,1.6817436186532383848508338257327
299,1.6824182001724750276795387365830
300,1.6830905292864712354921765588244
301,1.6837606209933894643163528278108
302,1.6844284901421119686208165700701
303,1.6850941514342145309586456142985
304,1.6857576194259083070326003987322
305,1.6864189085299512146861453973436
306,1.6870780330175281300174342418599
307,1.6877350070200970725669094725619
308,1.6883898445312088580042281066168
309,1.6890425594082963075772434985481
310,1.6896931653744333494669333355293
311,1.6903416760200676069478456989355
312,1.6909881048047239864844441669731
313,1.6916324650586806585087304168943
314,1.6922747699846192351505848859616
315,1.6929150326592484645607408567175
316,1.6935532660349028174657689346592
317,1.6941894829411135045574368276491
318,1.6948236960861572759584696763728
319,1.6954559180585801443242055183763
320,1.6960861613286960328354563570336
321,1.6967144382500642670144306133451
322,1.6973407610609420247916833240363
323,1.6979651418857152588606966019084
324,1.6985875927363070684569525125251
325,1.6992081255135652825396709449295
326,1.6998267520086274916000023003353
327,1.7004434839042663488485551208816
328,1.7010583327762123299739037054284
329,1.7016713100944589263278775604104
330,1.7022824272245467032008854651942
331,1.7028916954288276617606537858811
332,1.7034991258677109658754726953249
333,1.7041047296008904123564925539931
334,1.7047085175885518286220320501013
335,1.7053105006925647126952603241010
336,1.7059106896776541735662856103991
337,1.7065090952125560441435796945370
338,1.7071057278711562256258104982173
339,1.7077005981336103277800528036794
340,1.7082937163874496964456408053320
341,1.7088850929286695418204618029120
342,1.7094747379628016646576419797244
343,1.7100626616059714181410933291033
344,1.7106488738859388991258044562294
345,1.7112333847431261880556489682210
346,1.7118162040316281123330143080549
347,1.7123973415202100984772181194477
348,1.7129768068932899247747994483302
349,1.7135546097519069193251972004842
350,1.7141307596146761458012167814720
351,1.7147052659187296645070810735542
352,1.7152781380206445510783191604154
353,1.7158493851973569571811924908663
354,1.7164190166470636276671203439242
355,1.7169870414901112394458879310712
356,1.7175534687698717718459666028621
357,1.7181183074536071474864784805003
358,1.7186815664333223876484813799732
359,1.7192432545266030272707397945781
360,1.7198033804774457274758782449383
361,1.7203619529570738304832494861308
362,1.7209189805647443384957603871042
363,1.7214744718285409121611628780392
364,1.7220284352061579125900635040654
365,1.7225808790856737232855578751891
366,1.7231318117863122296428347353995
367,1.7236812415591953480178911811281
368,1.7242291765880833930833766070944
369,1.7247756249901079160063288341484
370,1.7253205948164927266127830915618
371,1.7258640940532659528383154250315
372,1.7264061306219620939336083088833
373,1.7269467123803140341313910220579
374,1.7274858471229393252440580628799
375,1.7280235425820114297527756148682
376,1.7285598064279273805940587588588
377,1.7290946462699636468452993662771
378,1.7296280696569233727110810464281
379,1.7301600840777768296031442734149
380,1.7306906969622918380690673032341
381,1.7312199156816570349964398913687
382,1.7317477475490951042529741448746
383,1.7322741998204706454146827590053
384,1.7327992796948876442734840850054
385,1.7333229943152801663690785404405
386,1.7338453507689969321874162181115
387,1.7343663560883755233518524091053
388,1.7348860172513101565935815786349
389,1.7354043411818137001750923901105
390,1.7359213347505711218601745739506
391,1.7364370047754846853574134982327
392,1.7369513580222145036003470748002
393,1.7374644012047119223365972219027
394,1.7379761409857443151075596565057
395,1.7384865839774141464765776249752
396,1.7389957367416719543574829507939
397,1.7395036057908228813357649518732
398,1.7400101975880267631009736464049
399,1.7405155185477903397649381287782
400,1.7410195750364558900076575665030
401,1.7415223733726823369535826706015
402,1.7420239198279195709784679102586
403,1.7425242206268788101694056424677
404,1.7430232819479968915115140992888
405,1.7435211099238919582289924301627
406,1.7440177106418166522983920120211
407,1.7445130901441059288367996739818
408,1.7450072544286169955420145711813
409,1.7455002094491642382442310832283
410,1.7459919611159516470304631814702
411,1.7464825152959970029420858991335
412,1.7469718778135514078174915589455
413,1.7474600544505152363220094482356
414,1.7479470509468469339929104083154
415,1.7484328730009689452446817150730
416,1.7489175262701672009500077566742
417,1.7494010163709870140656236071851
418,1.7498833488796225465217086301505
419,1.7503645293323041258692922208464
420,1.7508445632256783935894470904124
421,1.7513234560171852372307924543394
422,1.7518012131254307879596686681368
423,1.7522778399305543196455204095129
424,1.7527533417745926631881862819933
425,1.7532277239618385154284907675960
426,1.7537009917591962494643297180039
427,1.7541731503965327109827359476514
428,1.7546442050670230142771075013729
429,1.7551141609274952503175024302629
430,1.7555830230987669689601390588205
431,1.7560507966659809389301892405080
432,1.7565174866789373350717083801960
433,1.7569830981524176907408632774784
434,1.7574476360665117132584009873264
435,1.7579111053669347860738259213169
436,1.7583735109653440586099199075895
437,1.7588348577396512851342393917026
438,1.7592951505343313946994385015683
439,1.7597543941607274734332016594162
440,1.7602125933973532303674958775822
441,1.7606697529901901066359720015969
442,1.7611258776529825916611300684035
443,1.7615809720675313940015118809172
444,1.7620350408839790862045675629634
445,1.7624880887210975542978527708295
446,1.7629401201665682762414792774185
447,1.7633911397772625984834975157936
448,1.7638411520795152287921576077093
449,1.7642901615693987858424064934298
450,1.7647381727129915579690464285294
451,1.7651851899466459741525191903000
452,1.7656312176772506285561596229106
453,1.7660762602824916016576462753429
454,1.7665203221111094668928043178548
455,1.7669634074831556066546617214545
456,1.7674055206902431346150405904564
457,1.7678466659957971200453198220818
458,1.7682868476353005100003680625337
459,1.7687260698165382632590632819902
460,1.7691643367198393383314025924345
461,1.7696016524983143852245372553257
462,1.7700380212780923539846094701379
463,1.7704734471585546237515749315556
464,1.7709079342125648131993269452676
465,1.7713414864866982410614995789942
466,1.7717741080014681674057248482712
467,1.7722058027515480961367052075487
468,1.7726365747059951543337741006797
469,1.7730664278084670250837339284152
470,1.7734953659774399583128761507743
471,1.7739233931064221266888671109572
472,1.7743505130641666241662867990246
473,1.7747767296948794580413155733785
474,1.7752020468184300384702482396102
475,1.7756264682305530881688065671553
476,1.7760499977030544860577341743802
477,1.7764726389840113778118943149473
478,1.7768943957979712292606152469268
479,1.7773152718461487119820131337024
480,1.7777352708066208156310460410441
481,1.7781543963345187378330075463131
482,1.7785726520622201203866116952648
483,1.7789900415995370117292739636253
484,1.7794065685339023753745700453310
485,1.7798222364305566211518143143464
486,1.7802370488327287439948514670448
487,1.7806510092618189190138049973955
488,1.7810641212175771492885073198265
489,1.7814763881782811944330555160382
490,1.7818878136009116429260384343915
491,1.7822984009213262623549999724459
492,1.7827081535544322156261883278633
493,1.7831170748943561180099724134978
494,1.7835251683146130289213144541342
495,1.7839324371682725707880082210343
496,1.7843388847881254192823061432204
497,1.7847445144868458502890789861774
498,1.7851493295571542887133228060235
499,1.7855533332719773562954503870965
500,1.785956528884607548750543233168
501,1.786358919628858288084568624939
502,1.786760508719221805078868848711
503,1.787161299351021319876040981747
504,1.787561294700565364308185056894
505,1.787960497925297093231840911622
506,1.788358912163944314752551459789
507,1.788756540536668087158107878369
508,1.789153386145209522306450189708
509,1.789549452073033026142560744343
510,1.789944741385472029361241465236
511,1.790339257129870439069068417601
512,1.790733002335723711417212003659
513,1.791125980014818160716676993792
514,1.791518193161369181272554233453
515,1.791909644752158756010018699497
516,1.792300337746670462054597046304
517,1.792690275087223047831820552498
518,1.793079459699104366898002259286
519,1.793467894490702450273410532735
520,1.793855582353636574106833032324
521,1.794242526162885117728435395367
522,1.794628728776914488117928816857
523,1.795014193037805547773326866871
