Eigenstate,Potential Energy
1,0.500000000048258455626935136919371048
2,0.64623093796612077659112571505785320
3,0.73633761063028113630489174586219977
4,0.79966527974154560721166991650727682
5,0.8480465786241781126817674031393757
6,0.8870660020362818236202646411673702
7,0.9197208314176413444338555326533006
8,0.9477838531460609025156844429623254
9,0.9723835662283268097403603229126593
10,0.9942802248133392041914096513740992
11,1.0140093990423677540635415787025144
12,1.0319621842202172221568532402355274
13,1.0484327104128377376193575624661557
14,1.0636476753034969557658668105282386
15,1.0777854600069713567343639489564219
16,1.090988933939995406595574036500362
17,1.103374288282768656716524959191598
18,1.115037286985157147974018324637304
19,1.126057789870672433303814819853835
20,1.136503090270409057141584671819977
21,1.146430421104742510552269949417385
22,1.155888866042069954262258543848627
23,1.164920837435335327515064336010676
24,1.173563233722451860641045482527953
25,1.181848356222228745544582856867754
26,1.189804642941959109178006219694906
27,1.197457261539996029329750245747870
28,1.204828592684792519811169937713722
29,1.211938627256853588451118143738854
30,1.218805295190560900477458895517436
31,1.225444739606892078691435090162134
32,1.231871546810157086327570673766549
33,1.238098940412226333792258359123087
34,1.244138946097178883907119590740988
35,1.250002532200104064288888949136880
36,1.255699730240310916737140743081576
37,1.261239738745115364833098736038351
38,1.266631013069956237701392518427199
39,1.271881343422742638287493581218655
40,1.276997922904514360897822259314298
41,1.281987407061746788982877772050045
42,1.286855966190639102603936104414502
43,1.291609331427238280081283284352953
44,1.296252835489157362797912681829145
45,1.300791448797076883120484402905395
46,1.305229811591082072794445735317115
47,1.309572262563411856829914937698005
48,1.313822864451609273640216293644977
49,1.317985426971400418293152809469446
50,1.32206352741450629207777783793807
51,1.32606052919112497911372297459620
52,1.32997959855847635642803708352198
53,1.33382371974435142537635789070415
54,1.33759570864704722082738428891856
55,1.34129822526959276201630302248757
56,1.34493378502609693884646475808117
57,1.34850476904085026229860044536802
58,1.35201343354601522131520263611158
59,1.35546191847098604125168908635717
60,1.35885225530547413128329846625303
61,1.36218637430881128065148491409437
62,1.36546611112966165851982962111583
63,1.36869321289309178318841649337389
64,1.37186934380563514649331759985477
65,1.37499609032345333924478280543175
66,1.37807496592384818450332063736239
67,1.38110741551611709416689387431329
68,1.38409481952398770353368903548920
69,1.38703849766855516777806347297783
70,1.38993971247771723601285539396718
71,1.39279967254550351488033074818958
72,1.39561953556239709123367789812996
73,1.39840041113569367706774071992545
74,1.40114336341712459130447409497666
75,1.40384941355333879193574130628951
76,1.40651954197338961527049344839740
77,1.40915469052606948061536407093851
78,1.41175576447877002053734486259278
79,1.41432363438849827686486285794272
80,1.41685913785474147693903045627283
81,1.41936308116302356315028165560668
82,1.42183624082723519824188063107120
83,1.42427936503813023507210897947823
84,1.42669317502475734781078884648060
85,1.42907836633503624537202407297030
86,1.43143561004117202249559808261880
87,1.43376555387514373308974938964123
88,1.43606882329907989271209197795298
89,1.43834602251495011490400977981715
90,1.44059773541765886936454154441424
91,1.44282452649530589789909237789884
92,1.44502694168008952653902725399274
93,1.44720550915306685717269419586374
94,1.44936074010574189329021563348932
95,1.45149312946123150041541493030739
96,1.45360315655755727968170846045294
97,1.45569128579542709089938437094903
98,1.45775796725269708716667063168549
99,1.45980363726755165088823043185116
100,1.46182871899229228064830506999243
101,1.46383362291949717423150744498695
102,1.46581874738218767836306711555018
103,1.46778447902952986212739308799029
104,1.46973119327949220631372525215531
105,1.47165925474978732718029107615551
106,1.47356901766833488888506568006731
107,1.47546082626440477687568501947356
108,1.47733501514152036497662103739776
109,1.47919190963313311537779956006177
110,1.48103182614201733060354641626370
111,1.48285507246426801534237406957792
112,1.48466194809873537238470724951695
113,1.48645274454267392112148506736685
114,1.48822774557433546930035259624952
115,1.48998722752319472023350468559876
116,1.49173145952844796600312890157701
117,1.49346070378639360420370668573530
118,1.49517521578726218465464486456192
119,1.49687524454202997880077273141294
120,1.49856103279972422228304447401386
121,1.50023281725568991391765852828269
122,1.50189082875126914118905524573795
123,1.50353529246531170943031157111019
124,1.50516642809791817205568996983012
125,1.50678445004678679294726224937485
126,1.50838956757652077479977495029420
127,1.50998198498123150934160284331522
128,1.51156190174075101815998621647963
129,1.51312951267075467962032277238595
130,1.51468500806707695550231232211961
131,1.51622857384448742685763397403434
132,1.51776039167017947139322141628925
133,1.51928063909221213309977183044737
134,1.52078948966313445888702936536925
135,1.52228711305900346864449312694347
136,1.52377367519400323761575622163352
137,1.52524933833085926203153801970470
138,1.52671426118722866695562326331052
139,1.52816859903824470939244475136106
140,1.52961250381537858373682914475930
141,1.53104612420177697915629229208983
142,1.53246960572422576522968083612010
143,1.53388309084188153199625717694223
144,1.53528671903190553093267336451882
145,1.53668062687213037561601053989409
146,1.53806494812088199208036033695697
147,1.53943981379407110590843399015388
148,1.54080535223966959506617423952231
149,1.54216168920967350941458064239013
150,1.54350894792965639775505968775761
151,1.54484724916600885664190199342064
152,1.54617671129095460010982638627679
153,1.54749745034543199998866847525918
154,1.54880958009992499602494553497439
155,1.55011321211332161178048817973108
156,1.55140845578987794264838795245786
157,1.55269541843435866256608775377948
158,1.55397420530542586750354351826579
159,1.5552449196673399285361526196014
160,1.5565076628400386920164959076166
161,1.5577625342476535229403773821085
162,1.5590096314655216525829482611962
163,1.5602490502657496836786206850729
164,1.5614808846613828897145607132960
165,1.5627052269492289085299510394356
166,1.5639221677513863457842829845096
167,1.5651317960555255205888732872859
168,1.5663341992539640421900891224827
169,1.5675294631815822797693161994200
170,1.5687176721526184684506918787876
171,1.5698989089963836459517534672973
172,1.5710732550919342865103710485938
173,1.5722407904017380343932523416617
174,1.5734015935043683804754861626156
175,1.5745557416262622667988659302485
176,1.5757033106725703254371438486476
177,1.5768443752571330121806904178140
178,1.5779790087316117894120958446465
179,1.5791072832138018030936643793774
180,1.5802292696151570002410384454593
181,1.5813450376675503354444361761950
182,1.5824546559492967617981640642841
183,1.5835581919104620554877634625742
184,1.5846557118974817155461591846677
185,1.5857472811771117468776476210791
186,1.5868329639597322951440962821489
187,1.5879128234220279339863967949200
188,1.5889869217290600408708175953788
189,1.5900553200557549926228759864288
190,1.5911180786078238316990464818113
191,1.5921752566421326257194945547148
192,1.5932269124865399024364965777334
193,1.5942731035592194639569034452189
194,1.5953138863874819209716636600660
195,1.5963493166261128793207213845350
196,1.5973794490752414707624178430209
197,1.5984043376977536032372591509025
198,1.5994240356362640925735933274508
199,1.6004385952296605094576513147669
200,1.6014480680292326818354824220666
201,1.6024525048143988291322808130694
202,1.6034519556080417044078810751999
203,1.6044464696914653991368265997568
204,1.6054360956189844254820839490721
205,1.6064208812321550413812077925241
206,1.6074008736736618371495243765632
207,1.6083761194008654542328931672931
208,1.6093466641990256575222708904709
209,1.6103125531942055040651531645925
210,1.6112738308658681037805510767699
211,1.6122305410591733311416305435214
212,1.6131827269969847149557801222290
213,1.6141304312915908841385023795700
214,1.6150736959561565451718147896631
215,1.6160125624159021974807512029047
216,1.6169470715190265411862432482508
217,1.6178772635473755362780560665163
218,1.6188031782268670856594304999311
219,1.6197248547376746150005216594243
220,1.6206423317241820575299074216586
221,1.6215556473047081460555727596091
222,1.6224648390810172095821106794047
223,1.6233699441476100353567689744103
224,1.6242709991008098556440526028377
225,1.6251680400476460157729572268796
226,1.6260611026145388613990840783397
227,1.6269502219557944878294006024024
228,1.6278354327619111616110341077720
229,1.6287167692677045665286901682493
230,1.6295942652602565602488665241143
231,1.6304679540866892308754920085696
232,1.6313378686617746623311837121242
233,1.6322040414753753940627172413181
234,1.6330665045997317211303207719437
235,1.6339252896965890057745545649330
236,1.6347804280241746992230957696951
237,1.6356319504440286938575758654080
238,1.6364798874276887367454791259707
239,1.6373242690632363401096233131335
240,1.6381651250617053421457384416121
241,1.6390024847633573995286345823017
242,1.6398363771438272675491700958869
243,1.6406668308201418986477627101498
244,1.6414938740566150475711576505200
245,1.6423175347706217562557291353665
246,1.6431378405382552369957047290550
247,1.6439548185998675356730846483904
248,1.6447684958655015555948992378223
249,1.6455788989202094104444615977549
250,1.6463860540292674904584522066251
251,1.6471899871432861412485783238614
252,1.6479907239032167531735635088740
253,1.6487882896452613328719437339988
254,1.6495827094056842132191142171251
255,1.6503740079255297811448312031424
256,1.6511622096552463080856756447610
257,1.6519473387592222738234235574646
258,1.6527294191202316277755715572983
259,1.6535084743437947905962110589277
260,1.6542845277624557817994122166138
261,1.6550576024399757864699307492882
262,1.6558277211754478858014642796141
263,1.6565949065073318013576005784882
264,1.6573591807174141032211082552836
265,1.6581205658346924065734419103000
266,1.6588790836391857237495581173409
267,1.6596347556656741843139398355644
268,1.6603876032073681561711140860011
269,1.6611376473195110369230013672536
270,1.6618849088229114389122122157486
271,1.6626294083074140512012338497064
272,1.6633711661353031573468526156566
273,1.6641102024446462513778494881403
274,1.6648465371525749602884935240065
275,1.6655801899585071479218302076257
276,1.6663111803473084778900183989157
277,1.6670395275924009188404490031736
278,1.6677652507588099460101629066775
279,1.6684883687061619415330357387359
280,1.6692089000916238863640419130339
281,1.6699268633727932326441060520620
282,1.6706422768105354527733045393933
283,1.6713551584717724776387322038726
284,1.6720655262322191805328676081564
285,1.6727733977790747140237803693778
286,1.6734787906136647245228050175157
287,1.6741817220540395038421424908397
288,1.6748822092375244795200314127486
289,1.6755802691232276919787962338950
290,1.6762759184945049910455636846571
291,1.6769691739613807927776595195838
292,1.6776600519629272815021911062557
293,1.6783485687696059628463737284803
294,1.6790347404855666046774243373971
295,1.6797185830509056530989206517136
296,1.6804001122438917090682728731409
297,1.6810793436831479973638207354624
298,1.6817562928298011446565219369666
299,1.6824309749895930695467494225699
300,1.6831034053149577351741915225095
301,1.6837735988070631758407180520703
302,1.6844415703178208905826613289217
303,1.6851073345518597768235719504837
304,1.6857709060684681816415872782221
305,1.6864322992835054991806924383079
306,1.6870915284712825774306063059528
307,1.6877486077664081163528137696725
308,1.6884035511656085358064895913724
309,1.6890563725295174025652483980123
310,1.6897070855844347515962064095782
311,1.6903557039240598965307023913703
312,1.6910022410111952424862353893714
313,1.6916467101794224940141068675171
314,1.6922891246347530624746801893925
315,1.6929294974572519925108048039886
316,1.6935678416026367832896727676439
317,1.6942041699038486431465889071138
318,1.6948384950726015289050621121356
319,1.6954708297009061114646292637303
320,1.6961011862625686689446223594997
321,1.6967295771146688263487967458162
322,1.6973560144990122562130573575366
323,1.6979805105435618543063742749753
324,1.6986030772638463675569007793961
325,1.6992237265643482362165996299547
326,1.6998424702398688875239930762936
327,1.7004593199768743016535973941543
328,1.7010742873548180391811790114868
329,1.7016873838474467049573903985619
330,1.7022986208240842800913496322324
331,1.7029080095508967606553765446491
332,1.7035155611921381643710688123156
333,1.7041212868113782838515558705311
334,1.7047251973727103704414495266467
335,1.7053273037419430636081254368981
336,1.7059276166877726239555853061200
337,1.7065261468829383421283154713753
338,1.7071229049053621824785285263908
339,1.7077179012392687260254563321136
340,1.7083111462762915040706645702625
341,1.7089026503165614360697417153168
342,1.7094924235697798689342744076002
343,1.7100804761562758555772938625721
344,1.7106668181080476664353230289335
345,1.7112514593697903533268806060043
346,1.7118344097999068404691019875693
347,1.7124156791715061080383884024058
348,1.7129952771733852800278084430993
349,1.7135732134109991613537235603163
350,1.7141494974074147665831855602724
351,1.7147241386042529279153378571769
352,1.7152971463626166648142247069398
353,1.7158685299640055997031397716902
354,1.7164382986112178342307815965177
355,1.7170064614292396514269014194484
356,1.7175730274661212535717804257720
357,1.7181380056938417748609560662355
358,1.7187014050091628129091591024520
359,1.7192632342344662242777175459650
360,1.7198235021185851219903976091896
361,1.7203822173376198199534255891638
362,1.7209393884957452059280856705622
363,1.7214950241260041387189122528520
364,1.7220491326910918936215238144992
365,1.7226017225841298925495308226556
366,1.7231528021294275965640006529820
367,1.7237023795832354528687772909076
368,1.7242504631344856850588347560430
369,1.7247970609055255592226191957986
370,1.7253421809528388391326574571983
371,1.7258858312677582838941137114078
372,1.7264280197771681445908660446832
373,1.7269687543441966267079519032500
374,1.7275080427689026268732805057713
375,1.7280458927889474355537763531815
376,1.7285823120802628619871354934361
377,1.7291173082577075706292487646266
378,1.7296508888757147965954491591776
379,1.7301830614289332799687681906424
380,1.7307138333528581758108745231661
381,1.7312432120244548153848217006635
382,1.7317712047627724368322331505099
383,1.7322978188295525600430480159704
384,1.7328230614298269694940871049997
385,1.7333469397125089263893226838070
386,1.7338694607709782688328480839277
387,1.7343906316436561494504532934913
388,1.7349104593145733473389602529507
389,1.7354289507139328291093052613080
390,1.7359461127186637482121440722958
391,1.7364619521529671995692481973422
392,1.7369764757888573379713584296951
393,1.7374896903466953338144907089760
394,1.7380016024957147473573911271982
395,1.7385122188545411784603960438516
396,1.7390215459917058427628454034211
397,1.7395295904261527042964150458854
398,1.7400363586277391727616902995163
399,1.7405418570177289313519786958026
400,1.7410460919692811951780933323503
401,1.7415490698079324493091403557609
402,1.7420507968120714117464372759783
403,1.7425512792134100421693440033238
404,1.7430505231974484896451896444741
405,1.7435485349039314448536602221424
406,1.7440453204273020059659859207727
407,1.7445408858171501750058727067201
408,1.7450352370786534879989678311620
409,1.7455283801730126400978960602916
410,1.7460203210178846202768945749028
411,1.7465110654878076157309714566064
412,1.7470006194146212686862573684717
413,1.7474889885878833648035548397760
414,1.7479761787552793771442265962009
415,1.7484621956230291497865537474477
416,1.7489470448562871508534865530926
417,1.7494307320795391435699775395086
418,1.7499132628769924387191706739139
419,1.7503946427929640071466148836265
420,1.7508748773322614343717941967992
421,1.7513539719605606696310884288566
422,1.7518319321047798511011974000617
423,1.7523087631534470435883350872225
424,1.7527844704570655025576330342984
425,1.7532590593284728440140668059395
426,1.7537325350431977272320989149764
427,1.7542049028398115351195981761163
428,1.7546761679202750660651951022708
429,1.7551463354502841498203845555460
430,1.7556154105596070496875145383281
431,1.7560833983424211548370504568606
432,1.7565503038576461124427428115427
433,1.7570161321292687377032592011401
434,1.7574808881466707998703594928886
435,1.7579445768649475081350086996891
436,1.7584072032052245985507656354377
437,1.7588687720549721835482014416011
438,1.7593292882683143462996619187483
439,1.7597887566663351614316411175606
440,1.7602471820373822134969881432754
441,1.7607045691373647732630151072709
442,1.7611609226900501956662212913881
443,1.7616162473873581873400539500017
444,1.7620705478896475632983926596397
445,1.7625238288260048236530906564881
446,1.7629760947945255749339171238983
447,1.7634273503625959654071162031889
448,1.7638776000671673528219145201897
449,1.7643268484150320453253284816691
450,1.7647750998830922682231502051073
451,1.7652223589186298599258927304638
452,1.7656686299395695386747775368705
453,1.7661139173347414833721902505545
454,1.7665582254641396177225239162680
455,1.7670015586591792218174315272370
456,1.7674439212229491684333825263406
457,1.7678853174304634800186890554975
458,1.7683257515289086025461587932894
459,1.7687652277378889104388744261163
460,1.7692037502496700852001371345427
461,1.7696413232294182177682328739279
462,1.7700779508154378479456544864524
463,1.7705136371194075449814189418596
464,1.7709483862266111905229404016318
465,1.7713822021961689329943379656046
466,1.7718150890612649444220255624523
467,1.7722470508293712605542044249549
468,1.7726780914824727202566298771244
469,1.7731082149772854812253315201872
470,1.7735374252454766369085753816513
471,1.7739657261938792021068521434291
472,1.7743931217047067652277635046979
473,1.7748196156357631584734886885062
474,1.7752452118206546503355759020651
475,1.7756699140689935835447079194293
476,1.7760937261666059726748886513636
477,1.7765166518757333948068450737591
478,1.7769386949352338496534837114742
479,1.7773598590607804789513982430887
480,1.7777801479450585401328612402059
481,1.7781995652579591855937428145008
482,1.7786181146467736167897972530360
483,1.7790357997363829936189248179655
484,1.7794526241294469193106834971944
485,1.7798685914065919781751927830432
486,1.7802837051265949114909582684864
487,1.7806979688265672808113575551057
488,1.7811113860221362156807708730645
489,1.7815239602076244743779869083441
490,1.7819356948562276812592690374146
491,1.7823465934201908754380662803696
492,1.7827566593309829594564808329454
493,1.7831658959994690234309290681778
494,1.7835743068160816392001511764270
495,1.7839818951509893174687093102002
496,1.7843886643542653728726313984286
497,1.7847946177560528830113690995591
498,1.7851997586667296872253459824515
499,1.7856040903770709229873697950029
500,1.786007616158411230930713194907
501,1.786410339262802375093608110994
502,1.786812262923173734111707196297
503,1.787213390353487132045869582162
504,1.787613724748893853261862277249
505,1.788013269285886689410691597457
506,1.788412027122452749201943322731
507,1.788810001398224879608219385699
508,1.789207195234631339091002963234
509,1.789603611735041954377098467692
510,1.789999253984916814681529527561
511,1.790394125051950735126004940050
512,1.790788227986217390240496236108
513,1.791181565820311733994982360888
514,1.791574141569491383554179156766
515,1.791965958231817341803699251260
516,1.792357018788292269809661633335
517,1.792747326202997384798442330896
518,1.793136883423229769908905638398
519,1.793525693379636878556765201250
520,1.793913758986351091329211942275
521,1.794301083141121121579428680177
522,1.794687668725444546890180499170
523,1.795073518604697904554820387572
