Eigenstate,Potential Energy
1,0.500000000023003227648712518103136918
2,0.64623093780126762529451490829967256
3,0.73633761014603746490421175364869460
4,0.79966527873291893125359613956431412
5,0.8480465768770250073912233610465148
6,0.8870659993327077417085844217234583
7,0.9197208275379899987585171115402145
8,0.9477838478697437379776936927766036
9,0.9723835593342085404692196399128858
10,0.9942802160799333358545115852671061
11,1.0140093882479426555655888376511007
12,1.0319621711428566143847483080742864
13,1.0484326948304763663729868242882450
14,1.0636476569939419828608803251203710
15,1.0777854387479151348516682833485660
16,1.090988909509022841515718209073592
17,1.103374260457361048393790694615988
18,1.115037255542693669895945684236274
19,1.126057754588429984621062735469544
20,1.136503050925560966535745195148494
21,1.146430377474356412321476984342821
22,1.155888817903105056037096267876557
23,1.164920784564639222944930135901381
24,1.173563175896756996218407420433206
25,1.181848293218148620598000613282025
26,1.189804574535984267121870501274553
27,1.197457187508489883457808953760636
28,1.204828512803987046298319333583904
29,1.211938541302844911495347293230530
30,1.218805202939304788810999621487861
31,1.225444640834199368433154248817348
32,1.231871441291689041935154221396015
33,1.238098827923489956421521332560030
34,1.244138826413522174597855654582418
35,1.250002405096711247929280921810329
36,1.255699595492197631608589782697442
37,1.261239596127123821628488306387995
38,1.266630862356750351186374542068496
39,1.271881184388803134194392125232733
40,1.276997755324133860173632598022436
41,1.281987230709024871132729694958730
42,1.286855780839477349560756006386639
43,1.291609136851335301777191158732186
44,1.296252631462003805402066956494450
45,1.300791235091950420733030279998388
46,1.305229587981042383240089427277100
47,1.309572028821295582072213072490045
48,1.313822620350024965234456228776440
49,1.317985172282723468208462884846303
50,1.32206326191087384914498709276465
51,1.32606025264443085129221586152897
52,1.32997931074036589903073165198513
53,1.33382342042621641534539162445245
54,1.33759539760002071711290890868459
55,1.34129790226454395207599757679365
56,1.34493344983362597125315424306929
57,1.34850442143128306541699356678773
58,1.35201307328939830798560870952728
59,1.35546154533708129939835561655055
60,1.35885186906375360034706891009160
61,1.36218597472845191373068100398098
62,1.36546569797954007008913508139068
63,1.36869278594177898225307867275533
64,1.37186890282139125502476734949364
65,1.37499563507422229573366964367459
66,1.37807449617725243245692719940921
67,1.38110693103945225536969587324289
68,1.38409432008421723588239478864006
69,1.38703798303230500749560148648379
70,1.38993918241127042403973563007517
71,1.39279912681479480723589838571140
72,1.39561897393300755313473158039825
73,1.39839983337284526058693133931526
74,1.40114276928567469634650962005057
75,1.40384880281777481030509457489487
76,1.40651891439782345760044985897709
77,1.40915404587423208592445528110545
78,1.41175510251400584817568015663665
79,1.41432295487375978060956085825655
80,1.41685844055258356099480308994852
81,1.41936236583559801980809904044404
82,1.42183550723628512694578406216120
83,1.42427861294498444264144145695957
84,1.42669240419032472956235781243197
85,1.42907757651980014688408755553698
86,1.43143480100518458175307264489563
87,1.43376472537802020274743268297081
88,1.43606797509999294221032638764650
89,1.43834515437262411216882684243642
90,1.44059684709036414182195605159628
91,1.44282361774085297253086081051524
92,1.44502601225582334870497216809220
93,1.44720455881586098792236743663586
94,1.44935976861199268488445922722148
95,1.45149213656685224977611566552620
96,1.45360214201797235948589397900078
97,1.45569024936556605803147559410210
98,1.45775690868698876824065537594245
99,1.45980255631991820454914482374171
100,1.46182761541614323636035767588626
101,1.46383249646772344725786693580282
102,1.46581759780715556064016175161335
103,1.46778330608307498873441108548366
104,1.46972999671291349723559665506532
105,1.47165803431384090406039408442703
106,1.47356777311322796646153317945570
107,1.47545955733978952879292965996465
108,1.47733372159648776366147897779757
109,1.47919059121620674566729032493503
110,1.48103048260114717680901105540271
111,1.48285370354682422143242190255012
112,1.48466055355150197496699370708650
113,1.48645132411184255490100386389647
114,1.48822629900549904468950338787955
115,1.48998575456134107278681893401650
116,1.49172995991795347734708792635569
117,1.49345917727101679412952191560984
118,1.49517366211013727403956330164250
119,1.49687366344566042302077771266088
120,1.49855942402597621477734484148582
121,1.50023118054578585956280037685589
122,1.50188916384578109913787846801694
123,1.50353359910415480506831562662475
124,1.50516470602034397772480500863943
125,1.50678269899137667708420920162069
126,1.50838778728117921913355351005705
127,1.50998017518317939379193749542139
128,1.51156006217651887307562731369680
129,1.51312764307617590499345216245529
130,1.51468310817728100679239419723381
131,1.51622664339389296705518459548920
132,1.51775843039248748895090553815314
133,1.51927864672039902535563137681358
134,1.52078746592944508060134029272590
135,1.52228505769494414526879446973652
136,1.52377158793033474290971368773411
137,1.52524721889758975964004142343100
138,1.52671210931360661555545314737477
139,1.52816641445275173101464444933579
140,1.52961028624572229486771122265003
141,1.53104387337488378421691735376843
142,1.53246732136623361203012434834845
143,1.53388077267813262875782822485076
144,1.53528436678693902446782673323189
145,1.53667824026967499025231349412917
146,1.53806252688384862891144179943508
147,1.53943735764454540195128579411121
148,1.54080286089890444190081164581198
149,1.54215916239808153087822080389613
150,1.54350638536680238625979585388824
151,1.54484465057060216768065722706600
152,1.54617407638084150451211416871528
153,1.54749477883758799348373453722182
154,1.54880687171044706566614834671624
155,1.55011046655742045878089986345901
156,1.55140567278187016117360955879507
157,1.55269259768765887402658216697750
158,1.55397134653253880988462493532714
159,1.5552420225798525002998092863391
160,1.5565047271486119501051320315305
161,1.5577595596620146344083818270275
162,1.5590066176944557993778873313897
163,1.5602459970170919200897058097597
164,1.5614777916420099520015607886894
165,1.5627020938650509762414604778034
166,1.5639189943073387542699590046516
167,1.5651285819555604242058111634358
168,1.5663309442010420276988273113057
169,1.5675261668776639294107111122516
170,1.5687143342986558721898857896300
171,1.5698955292923118623713280680393
172,1.5710698332366627518295333544382
173,1.5722373260931419190856044299807
174,1.5733980864392798929526676223537
175,1.5745521915004619036227880809611
176,1.5756997171807780675183623143590
177,1.5768407380929994664156549252903
178,1.5779753275877092752067360432734
179,1.5791035577816153832158035833608
180,1.5802254995850754554388264414713
181,1.5813412227288570822627661296748
182,1.5824507957901607130197049035324
183,1.5835542862179284226198385316885
184,1.5846517603574627527693138895823
185,1.5857432834743774358660010330493
186,1.5868289197779009701623666572851
187,1.5879087324435568466624634073729
188,1.5889827836352358640370528762445
189,1.5900511345266842626139142981010
190,1.5911138453224233284872911942136
191,1.5921709752781196902643081187729
192,1.5932225827204226906164705973081
193,1.5942687250662871364488994243413
194,1.5953094588417947684339255475050
195,1.5963448397004923822311897067110
196,1.5973749224412602932570723498692
197,1.5983997610257255202868744122029
198,1.5994194085952338498308873663162
199,1.6004339174873936151001137697785
200,1.6014433392522051297226168411186
201,1.6024477246677867525894572850491
202,1.6034471237557109599417013426048
203,1.6044415857959610793805434159595
204,1.6054311593415203006622801412906
205,1.6064158922326029285901611526650
206,1.6073958316105408967002640629674
207,1.6083710239313314123669177034360
208,1.6093415149788599547324386119445
209,1.6103073498778043682889207247213
210,1.6112685731062315477111611865237
211,1.6122252285078940728973283945460
212,1.6131773593042370213395273384701
213,1.6141250081061193357123162433535
214,1.6150682169252647223628732259071
215,1.6160070271854412869275654575678
216,1.6169414797333838615255515860979
217,1.6178716148494629825649567725332
218,1.6187974722581094916046315633774
219,1.6197190911379980322004546710543
220,1.6206365101320019508569147379377
221,1.6215497673569175043666221505493
222,1.6224589004129745708959073288989
223,1.6233639463931274256403418405805
224,1.6242649418921406403408745833888
225,1.6251619230154726631955291167839
226,1.6260549253879606170997680561900
227,1.6269439841623149590542818698732
228,1.6278291340274258109317325290865
229,1.6287104092164881137378263592499
230,1.6295878435149502915952671717516
231,1.6304614702682882147051720540330
232,1.6313313223896148701906061853379
233,1.6321974323671207263105564849944
234,1.6330598322713609360939267547702
235,1.6339185537623825514770856893886
236,1.6347736280967014466966046754278
237,1.6356250861341325710473279396735
238,1.6364729583444752619994714661457
239,1.6373172748140590542371666671046
240,1.6381580652521521380172819733155
241,1.6389953589972367481783822012231
242,1.6398291850231543397309746749675
243,1.6406595719451245807826855502127
244,1.6414865480256398510145618807385
245,1.6423101411802396187991172806558
246,1.6431303789831672155073196765878
247,1.6439472886729103887691883084726
248,1.6447608971576332152214315942656
249,1.6455712310204943412364870043412
250,1.6463783165248619357325709213998
251,1.6471821796194232544704252310657
252,1.6479828459431916137303998764693
253,1.6487803408304158449667639987957
254,1.6495746893153918866899537338084
255,1.6503659161371803929998202356789
256,1.6511540457442304435302702634594
257,1.6519391022989157455433354104799
258,1.6527211096819797722249017275645
259,1.6535000914968966400261985637840
260,1.6542760710741481107490196427892
261,1.6550490714754170314252618311640
262,1.6558191154977019367164587372774
263,1.6565862256773516637133643892611
264,1.6573504242940254292871660179681
265,1.6581117333745768945179783341241
266,1.6588701746968643832311951644801
267,1.6596257697934904671718230151667
268,1.6603785399554709508140297241671
269,1.6611285062358375250028909931384
270,1.6618756894531698128507167891818
271,1.6626201101950660911220857594161
272,1.6633617888215466659496612834372
273,1.6641007454683973452726503192130
274,1.6648370000504502162930140251308
275,1.6655705722648056028063122257699
276,1.6663014815939934800368434225541
277,1.6670297473090818302679804763404
278,1.6677553884727236931928578817439
279,1.6684784239421544134304383411995
280,1.6691988723721311780542028007689
281,1.6699167522178227329371467132504
282,1.6706320817376467741624960059665
283,1.6713448789960582269271628034775
284,1.6720551618662855684540612316677
285,1.6727629480330220021548811172799
286,1.6734682549950675077691287871344
287,1.6741711000679268267516370921450
288,1.6748715003863597846650867685349
289,1.6755694729068885986228620595198
290,1.6762650344102629022901151648261
291,1.6769582015038803293639258394238
292,1.6776489906241655404202216371380
293,1.6783374180389115988824659334942
294,1.6790234998495787330076142070586
295,1.6797072519935525710148270132158
296,1.6803886902463694348976815057190
297,1.6810678302238986246252430960512
298,1.6817446873844910094640167420273
299,1.6824192770310907292569004690893
300,1.6830916143133117562424125347016
301,1.6837617142294797288305017103169
302,1.6844295916286411502456028911627
303,1.6850952612125371251432224139766
304,1.6857587375375452117080848301069
305,1.6864200350165908177376582670532
306,1.6870791679210274039087915753062
307,1.6877361503824826761789792724554
308,1.6883909963946782457483646963357
309,1.6890437198152188458456872396450
310,1.6896943343673514404826628680384
311,1.6903428536416978200773002796263
312,1.6909892910979581970764048441820
313,1.6916336600665871943240339156081
314,1.6922759737504440304473340663558
315,1.6929162452264162219005086131686
316,1.6935544874470181773071065469643
317,1.6941907132419622227032214711681
318,1.6948249353197074089243589929830
319,1.6954571662689832426964068181760
320,1.6960874185602883426863107677613
321,1.6967157045473679394449336175011
322,1.6973420364686663336711053305736
323,1.6979664264487578268335956646434
324,1.6985888864997551012889591470628
325,1.6992094285226968118738775687871
326,1.6998280643089126261966490721714
327,1.7004448055413685343809949735404
328,1.7010596637959896174550469778625
329,1.7016726505429652492417292339454
330,1.7022837771480331634144112403585
331,1.7028930548737438242922839108079
332,1.7035004948807061625966706756606
333,1.7041061082288150547043944995062
334,1.7047099058784587294009631368482
335,1.7053118986917104170465437221616
336,1.7059120974335002991858438290193
337,1.7065105127727706308280891997893
338,1.7071071552836150942285623257330
339,1.7077020354463984486587023980693
340,1.7082951636488625674847887185012
341,1.7088865501872145761125173995338
342,1.7094762052671995879268369206299
343,1.7100641390051576759957959273220
344,1.7106503614290650742250346087985
345,1.7112348824795614272773018852209
346,1.7118177120109605640311984086508
347,1.7123988597922483599174294211832
348,1.7129783355080644998367707318903
349,1.7135561487596716865635422893613
350,1.7141323090659098369552403774151
351,1.7147068258641373535521337636051
352,1.7152797085111591539116301729183
353,1.7158509662841407420361414460841
354,1.7164206083815097363511423083556
355,1.7169886439238452194976180107615
356,1.7175550819547531197086706388411
357,1.7181199314417308627954145905585
358,1.7186832012770205387309497544176
359,1.7192449002784463279585578184562
360,1.7198050371902451253312356723459
361,1.7203636206838821065391435820564
362,1.7209206593588577186141737203264
363,1.7214761617435006901126839948523
364,1.7220301362957520849595050320593
365,1.7225825914039386363096348593575
366,1.7231335353875342380867441401161
367,1.7236829764979124861986246024849
368,1.7242309229190870581490064581788
369,1.7247773827684445635812964391695
370,1.7253223640974655789204641131027
371,1.7258658748924367194132004478504
372,1.7264079230751527050367451393916
373,1.7269485165036083869834575049862
374,1.7274876629726850431922574846543
375,1.7280253702148216344882360660331
376,1.7285616459006824775379795131146
377,1.7290964976398131238233450685517
378,1.7296299329812876120365097588018
379,1.7301619594143489336904846697332
380,1.7306925843690394687014252257008
381,1.7312218152168242663707480465113
382,1.7317496592712042899288738258641
383,1.7322761237883242992937744196494
384,1.7328012159675703357372620921181
385,1.7333249429521604297048427152123
386,1.7338473118297291904333420914066
387,1.7343683296329020266930701873227
388,1.7348880033398629354429594592574
389,1.7354063398749165330737090409028
390,1.7359233461090415183336803506436
391,1.7364390288604358838661072197492
392,1.7369533948950574847222164691919
393,1.7374664509271574373236281787765
394,1.7379782036198049299578364734883
395,1.7384886595854063016653693297615
396,1.7389978253862180403726489385980
397,1.7395057075348533301639334024819
398,1.7400123124947821558124976267722
399,1.7405176466808235303475818547052
400,1.7410217164596341456000562443391
401,1.7415245281501894946313415242328
402,1.7420260880242582112473269396885
403,1.7425264023068724473217013457518
404,1.7430254771767921810034859053925
405,1.7435233187669609212383969260949
406,1.7440199331649589176234120573402
407,1.7445153264134509922992983916360
408,1.7450095045106264970593450626034
409,1.7455024734106342567361172416029
410,1.7459942390240150133287531718410
411,1.7464848072181256308735686335629
412,1.7469741838175586436310153847844
413,1.7474623746045582266337190780823
414,1.7479493853194290124247479864539
415,1.7484352216609420379336041442664
416,1.7489198892867342511068133509763
417,1.7494033938137044257645738383988
418,1.7498857408184026479040310519055
419,1.7503669358374176519454268046976
420,1.7508469843677569888272034341091
421,1.7513258918672239781181263985019
422,1.7518036637547907257335775600421
423,1.7522803054109650433798519931623
424,1.7527558221781548834357949966899
425,1.7532302193610266686150516068865
426,1.7537035022268611232332787538294
427,1.7541756760059040906933315331856
428,1.7546467458917123508590501495262
429,1.7551167170414983496887471704084
430,1.7555855945764667032158442425515
431,1.7560533835821499795140036683221
432,1.7565200891087409081420113223531
433,1.7569857161714163549475677158259
434,1.7574502697506641601477919451553
435,1.7579137547926006633419953763092
436,1.7583761762092868164270247828840
437,1.7588375388790410457648435577521
438,1.7592978476467478456464205678707
439,1.7597571073241627843352195480534
440,1.7602153226902149938829252271589
441,1.7606724984913043035482392350593
442,1.7611286394415965804436060953360
443,1.7615837502233169250822084820075
444,1.7620378354870353411741921124968
445,1.7624908998519542103069119539991
446,1.7629429479061885958352710632058
447,1.7633939842070465451263172867785
448,1.7638440132813026083354940590353
449,1.7642930396254724141938876527917
450,1.7647410677060804552225662692045
451,1.7651881019599285854424643766402
452,1.7656341467943580719018987830882
453,1.7660792065875109430672301955947
454,1.7665232856885870229981947701235
455,1.7669663884181002751535506264354
456,1.7674085190681297527978118645522
457,1.7678496819025698516884980171865
458,1.7682898811573762609115320768803
459,1.7687291210408101257610864781857
460,1.7691674057336800649775602322535
461,1.7696047393895798920390311646182
462,1.7700411261351252535265190811899
463,1.7704765700701877883042001005558
464,1.7709110752681249683892501652978
465,1.7713446457760095902165534353760
466,1.7717772856148560469633745116226
467,1.7722089987798426624190639267985
468,1.7726397892405351020084031506703
469,1.7730696609411033376331848208556
470,1.7734986178005396908403804451303
471,1.7739266637128722213901528535090
472,1.7743538025473777588026635325824
473,1.7747800381487899277520894908528
474,1.7752053743375096712671643671315
475,1.7756298149098071944587964269860
476,1.7760533636380278425445713151596
477,1.7764760242707922461315209540435
478,1.7768978005331954097086416490480
479,1.7773186961270036326969624937311
480,1.7777387147308496576002489501819
481,1.7781578600004245960930912553169
482,1.7785761355686702017948160443551
483,1.7789935450459668696860632920009
484,1.7794100920203201818825996666304
485,1.7798257800575474766013234538344
486,1.7802406127014590250693850544914
487,1.7806545934740406651158221251106
488,1.7810677258756324878885205217303
489,1.7814800133851068057511301412114
490,1.7818914594600432643593071205217
491,1.7823020675369032330696750444797
492,1.7827118410312020617380125662974
493,1.7831207833376791787815660990283
494,1.7835288978304671244108398591760
495,1.7839361878632577113878915026158
496,1.7843426567694685575929111306173
497,1.7847483078624056757771540552346
498,1.7851531444354260656108782525962
499,1.7855571697620978051997501337142
500,1.785960387096359772392002951942
501,1.786362799672676741735008663666
502,1.786764410706197312078025336376
503,1.787165223392906132760373279262
504,1.787565240909778272032194578469
505,1.787964466414928574977260753999
506,1.788362903047761740828168772345
507,1.788760553929120967498036389653
508,1.789157422161434803081588849324
509,1.789553510828860435006243338082
510,1.789948822997429469856329496982
511,1.790343361715189434730580517362
512,1.790737130012344900111068086825
513,1.791130130901396839761453423316
514,1.791522367377280903899599928948
515,1.791913842417504979721707973919
516,1.792304558982284249449812039557
517,1.792694520014674820473514781905
518,1.793083728440707712805668378437
519,1.793472187169519985629619193635
520,1.793859899093485859776185007794
521,1.794246867088344631192670467625
522,1.794633094013329651440648634356
523,1.795018582711294812213851600383
