Eigenstate,Potential Energy
1,0.500000000088332195631008146514699149
2,0.64623093822770243897008593416066682
3,0.73633761139866150578705209070885793
4,0.79966528134200942777361975782299971
5,0.8480465813965426192460941690324335
6,0.8870660063263327924574207678627290
7,0.9197208375739806568952857290516567
8,0.9477838615187946021241267440577979
9,0.9723835771684575774382326512428552
10,0.9942802386724603443791296071451407
11,1.0140094161724991211649801178921064
12,1.0319622049737134809138467279144288
13,1.0484327351423360051415283250460490
14,1.0636477043618871108749451061225747
15,1.0777854937473800271313821895511098
16,1.090988972715778550882876232799401
17,1.103374332447509740431646952539231
18,1.115037336892669074321050460530286
19,1.126057845875002063584234273233960
20,1.136503152725843561336105894123673
21,1.146430490365817039991660297546208
22,1.155888942463576288698506714758588
23,1.164920921372331253748650068176858
24,1.173563325530271109954620112319967
25,1.181848456256491365015717474927295
26,1.189804751558582175177677977577519
27,1.197457379095204635001201502058765
28,1.204828719535130985181700140199874
29,1.211938763759196854101502145664357
30,1.218805441702126074745052448271835
31,1.225444896485250115140206134574896
32,1.231871714413244573319671550538326
33,1.238099119098357381887561000767536
34,1.244139136225057099815218560562232
35,1.250002734128834602428865460510663
36,1.255699944329412601287878266806391
37,1.261239965354532876601550655564759
38,1.266631252560072361286662151303509
39,1.271881596154390565941528758469790
40,1.276998189238990050228959486142972
41,1.281987687360821372254392366846548
42,1.286856260816571345875417989477345
43,1.291609640742787090848516459673647
44,1.296253159857594345124364164967258
45,1.300791788582198939534340807498599
46,1.305230167157224052460075547310650
47,1.309572634275459249700087870804780
48,1.313823252675010950462429445520018
49,1.317985832072181416485160980373242
50,1.32206394975928064760843048260496
51,1.32606096914710860462910842573768
52,1.32998005649349996595235337702459
53,1.33382419602687350599443308841356
54,1.33759620364616705182329180362543
55,1.34129873935506348200147416189112
56,1.34493431856833866146264346961076
57,1.34850532241096324112672989349081
58,1.35201400711579306466225561904859
59,1.35546251261292897752358449163942
60,1.35885287039280232568486446990654
61,1.36218701071547820398380006773735
62,1.36546676923036750887211734365185
63,1.36869389306329696134599377624133
64,1.37187004642157378590550395085824
65,1.37499681576214689141747284391442
66,1.37807571456311906069999565311702
67,1.38110818773460236431980868802124
68,1.38409561570115285328381597041548
69,1.38703931818470791457829764659102
70,1.38994055771402140524385736806302
71,1.39280054288399297694302517042111
72,1.39562043138598976059588352336970
73,1.39840133282820557425591184493398
74,1.40114431136328396884416169831837
75,1.40385038813880032525696646602464
76,1.40652054358474865960617561447081
77,1.40915571955087639493296999578422
78,1.41175682130554455955548085885870
79,1.41432471940674405221810631851009
80,1.41686025145496048856543418619959
81,1.41936422373673080198742074398467
82,1.42183741276697332132835867444087
83,1.42428056673748431416249429354693
84,1.42669440687836969262308420791075
85,1.42907962873862130259779516973853
86,1.43143690339153135171387203374104
87,1.43376687857018106073698471715432
88,1.43607017973781624527154142995534
89,1.43834741109753903248902483477899
90,1.44059915654540170088148552859382
91,1.44282598057066717898703628347922
92,1.44502842910671244149452448285514
93,1.44720703033578878607967404725233
94,1.44936229545061004558645833596796
95,1.45149471937551863613885104562285
96,1.45360478144977751965153515782242
97,1.45569294607535181709909659620652
98,1.45775966333137093460794318866049
99,1.45980536955730859224711679190392
100,1.46183048790677180497732945466604
101,1.46383542887366056106394276100690
102,1.46582059079233436853825889042525
103,1.46778636031331392667881047788968
104,1.46973311285593891477474200583156
105,1.47166121303930981667542478578955
106,1.47357101509275093538819824833470
107,1.47546286324695367003002050470696
108,1.47733709210687988788513746888652
109,1.47919402700743663078676857964998
110,1.48103398435287097491578387613371
111,1.48285727194076800191127662259595
112,1.48466418927148540555474279977282
113,1.48645502784380272249537619473869
114,1.48823007143751441772830074214775
115,1.48998959638365560703489489937833
116,1.49173387182300086694667066344689
117,1.49346315995344486978740859642937
118,1.49517771626683255024303655058817
119,1.49687778977577279619272241667544
120,1.49856362323094381430006690294499
121,1.50023545332936005361893773136053
122,1.50189351091405165733631211619389
123,1.50353802116557521984276707109357
124,1.50516920378575694651253486243940
125,1.50678727317403974731279031183885
126,1.50839243859679059806404455985621
127,1.50998490434990392528761482892438
128,1.51156486991501418338674893567707
129,1.51313253010961871966982877818006
130,1.51468807523139364085730326954453
131,1.51623169119696999059626869721754
132,1.51776355967542257030641818309494
133,1.51928385821671195409638432361456
134,1.52079276037530897253251880164293
135,1.52229043582921283169893193402318
136,1.52377705049457034645752574948381
137,1.52525276663609045887444611783114
138,1.52671774297343460078828173306580
139,1.52817213478376135359029702027653
140,1.52961609400058841231930332551763
141,1.53104976930913030368379219684057
142,1.53247330623826223435774371932353
143,1.53388684724925179572724944687440
144,1.53529053182139307162859417552088
145,1.53668449653467350785965877022315
146,1.53806887514959603349613618603686
147,1.53944379868427072107865671831378
148,1.54080939548889131470297822581179
149,1.54216579131769842697332521926666
150,1.54351310939853304569988704053111
151,1.54485147050007626460074150860075
152,1.54618099299686553718180142703933
153,1.54750179293217640349396150398581
154,1.54881398407885358901392334951406
155,1.55011767799816971164653931922982
156,1.55141298409678946321713877318405
157,1.55270000968191031206123883062493
158,1.55397886001465154481907389378998
159,1.5552496383617553202734085800987
160,1.5565124460456660727745600000430
161,1.5577673824930467613779827115762
162,1.5590145452817914258010557372181
163,1.5602540301865889025032794823564
164,1.5614859312230923374918271424559
165,1.5627103406907430960762103848038
166,1.5639273492142995851676810120838
167,1.5651370457841182204507635230768
168,1.5663395177952292273490242073181
169,1.5675348510852523378834004662345
170,1.5687231299711921265494469746884
171,1.5699044372851531796830771536180
172,1.5710788544090129649840489241530
173,1.5722464613080878035383396822745
174,1.5734073365638277878657983572373
175,1.5745615574055746309378574501755
176,1.5757091997414121525314644705155
177,1.5768503381881426634698758229833
178,1.5779850461004184021606610411898
179,1.5791133955990544683921777307676
180,1.5802354575985542008023538066414
181,1.5813513018338696466220394036046
182,1.5824609968864248190953173303173
183,1.5835646102094247918682384703034
184,1.5846622081524748718997068866573
185,1.5857538559855316590378932079094
186,1.5868396179222069608986420126291
187,1.5879195571424483635660191634878
188,1.5889937358146118944483362290034
189,1.5900622151169505083995328848876
190,1.5911250552585340482023394497238
191,1.5921823154996199019852418368284
192,1.5932340541714907397950273503733
193,1.5942803286957776331934160490760
194,1.5953211956032818986799481955483
195,1.5963567105523135973212865070003
196,1.5973869283465603825062814712215
197,1.5984119029525010711699784175089
198,1.5994316875163781004870081982968
199,1.6004463343807417039109490988507
200,1.6014558951005797467818819599098
201,1.6024604204590441979432779032382
202,1.6034599604827876135446328790941
203,1.6044545644569202877742703556796
204,1.6054442809395996854514110398105
205,1.6064291577762621218544158037583
206,1.6074092421135097085511900113177
207,1.6083845804126584359253436492513
208,1.6093552184629616138718273899935
209,1.6103212013945144135623131905410
210,1.6112825736908510059494603561293
211,1.6122393792012416560404587302045
212,1.6131916611527000001363473370159
213,1.6141394621617048840003851237486
214,1.6150828242456517377154126897743
215,1.6160217888340326935329001915699
216,1.6169563967793594012437676156828
217,1.6178866883678325001858465144320
218,1.6188127033297667204130322904339
219,1.6197344808497748860384339065847
220,1.6206520595767233289554320349734
221,1.6215654776334566153053536362510
222,1.6224747726263087821370423792766
223,1.6233799816543946451695718578141
224,1.6242811413186962370397208418934
225,1.6251782877309469326591810089179
226,1.6260714565223167997085454715434
227,1.6269606828519078171990335492864
228,1.6278460014150607723911997740718
229,1.6287274464514809883023987293254
230,1.6296050517531875681296662372682
231,1.6304788506722879459443838548184
232,1.6313488761285881526644954095512
233,1.6322151606170337828964843948891
234,1.6330777362149978088029723972445
235,1.6339366345894084121851443981703
236,1.6347918870037265336420411624194
237,1.6356435243247767590269853016507
238,1.6364915770294332743072263268213
239,1.6373360752111663245041740558920
240,1.6381770485864513302292209042730
241,1.6390145265010449432634464856878
242,1.6398485379361308972318104929576
243,1.6406791115143396842494941221149
244,1.6415062755056437458789010350693
245,1.6423300578331325516157648330498
246,1.6431504860786700835799297632341
247,1.6439675874884361093054309836224
248,1.6447813889783588232968981671104
249,1.6455919171394338259818348195576
250,1.6463991982429398242952433311551
251,1.6472032582455489534431192326017
252,1.6480041227943345178792632065672
253,1.6488018172316812232377717061259
254,1.6495963666000975556194606540734
255,1.6503877956469341878032319392949
256,1.6511761288290084972967540371742
257,1.6519613903171415871181623196492
258,1.6527436040006042535183050454017
259,1.6535227934914787036487314773681
260,1.6542989821289364090354600708582
261,1.6550721929834324080749783893429
262,1.6558424488608207824474845414309
263,1.6566097723063901574980087282165
264,1.6573741856088246769115992292065
265,1.6581357108040889763870972749447
266,1.6588943696792393235192195269025
267,1.6596501837761641366032901227212
268,1.6604031743952539155480477958246
269,1.6611533625990048542826361240321
270,1.6619007692155518582743334794539
271,1.6626454148421402505884635040621
272,1.6633873198485301455337726769952
273,1.6641265043803409324878877179457
274,1.6648629883623330784078574068573
275,1.6655967915016311240921712051641
276,1.6663279332908861520412603972035
277,1.6670564330113852094256877565174
278,1.6677823097360994403096351000435
279,1.6685055823326824298041560790222
280,1.6692262694664108532261490120108
281,1.6699443896030753193043957020694
282,1.6706599610118189039205655618564
283,1.6713730017679265870567465537395
284,1.6720835297555627497144707782576
285,1.6727915626704635382997610626332
286,1.6734971180225801214571271259510
287,1.6742002131386778988887928503882
288,1.6749008651648880641813815405398
289,1.6755990910692161699586957975862
290,1.6762949076440084281445901315692
291,1.6769883315083735865410727352073
292,1.6776793791105632668948292922856
293,1.6783680667303146705018574172008
294,1.6790544104811506885433808737678
295,1.6797384263126395045820434821172
296,1.6804201300126212750702805560738
297,1.6810995372093918198905160979097
298,1.6817766633738526399809431492363
299,1.6824515238216240652111032888729
300,1.6831241337151232834235436806510
301,1.6837945080656076623984712095581
302,1.6844626617351854579978325037341
303,1.6851286094387910819490449751283
304,1.6857923657461285071360923438705
305,1.6864539450835842392674793144415
306,1.6871133617361091184943684450277
307,1.6877706298490661333093584899409
308,1.6884257634300517255418318966995
309,1.6890787763506866761086169534058
310,1.6897296823483769070665072669574
311,1.6903784950280477952799255162020
312,1.6910252278638495112536152531349
313,1.6916698942008347763026117929196
314,1.6923125072566108427677294544638
315,1.6929530801229650173630466510925
316,1.6935916257674651037461952262295
317,1.6942281570350323033774370588045
318,1.6948626866494919263816078098755
319,1.6954952272150990544531269075919
320,1.6961257912180391575499285367004
321,1.6967543910279075838083464860812
322,1.6973810388991640376184073426643
323,1.6980057469725655604148682169187
324,1.6986285272765769918533522434412
325,1.6992493917287606738910687673520
326,1.6998683521371436355478876023095
327,1.7004854202015650796644984134502
328,1.7011006075150013614253222164473
329,1.7017139255648734340877849389069
330,1.7023253857343331941805650132907
331,1.7029349993035301653536905864146
332,1.7035427774508595827272820097153
333,1.7041487312541922569084702901417
334,1.7047528716920844023288790280032
335,1.7053552096449717454758996318727
336,1.7059557558963439717269670388887
337,1.7065545211339023837001871494940
338,1.7071515159507018306600530329828
339,1.7077467508462729741792857496102
340,1.7083402362277309821150465242536
341,1.7089319824108663652019619004116
342,1.7095219996212204541600181949744
343,1.7101102979951451558636465664192
344,1.7106968875808469830577697119821
345,1.7112817783394171777494248698662
346,1.7118649801458454038782187531871
347,1.7124465027900205754589736158523
348,1.7130263559777156327612189793336
349,1.7136045493315598123197486985000
350,1.7141810923919959540015140818426
351,1.7147559946182249336355903221633
352,1.7153292653891369044964717423607
353,1.7159009140042286329643101849917
354,1.7164709496845083438043880665847
355,1.7170393815733884413366175084298
356,1.7176062187375643172968299808257
357,1.7181714701678824854643460562989
358,1.7187351447801972881193751235670
359,1.7192972514162119205563948128276
360,1.7198577988443127126831212107005
361,1.7204167957603884137085171149077
362,1.7209742507886409626837847264594
363,1.7215301724823823416958964764037
364,1.7220845693248225369208549965732
365,1.7226374497298468451515304142184
366,1.7231888220427814047372760430975
367,1.7237386945411498442439463522334
368,1.7242870754354178389005817794987
369,1.7248339728697302087333994140746
370,1.7253793949226362729569509082114
371,1.7259233496078063153554459323878
372,1.7264658448747381185929207365665
373,1.7270068886094535356563994927828
374,1.7275464886351894084408011751825
375,1.7280846527130735266051126821324
376,1.7286213885427970845111364571079
377,1.7291567037632754270988702733351
378,1.7296906059533002537724518993194
379,1.7302231026321851218211067418929
380,1.7307542012604010078858117619925
381,1.7312839092402048047073015250613
382,1.7318122339162578731584748136282
383,1.7323391825762393261057306822803
384,1.7328647624514490097230515990890
385,1.7333889807174038054867908956863
386,1.7339118444944279135184877085060
387,1.7344333608482328686802327304582
388,1.7349535367904912283339354632800
389,1.7354723792794046086155457540346
390,1.7359898952202632605485913201925
391,1.7365060914659975052055633631833
392,1.7370209748177246386205311136430
393,1.7375345520252887823222265639135
394,1.7380468297877922630219358326726
395,1.7385578147541213808295013376356
396,1.7390675135234662194261115479015
397,1.7395759326458341307256368658113
398,1.7400830786225569048507348883217
399,1.7405889579067901939655195546377
400,1.7410935769040094927540054057901
401,1.7415969419724987273574846148104
402,1.7420990594238322009550416263267
403,1.7425999355233527197717254732725
404,1.7430995764906437957251707595901
405,1.7435979884999933943574292997685
406,1.7440951776808553403656506060722
407,1.7445911501183055008192278447669
408,1.7450859118534902527092883342046
409,1.7455794688840700994486224974102
410,1.7460718271646609544340146553809
411,1.7465629926072673554118462076856
412,1.7470529710817111960654135965019
413,1.7475417684160570578026388238431
414,1.7480293903970305696168703113366
415,1.7485158427704340841191176410685
416,1.7490011312415561036064926786167
417,1.7494852614755773090172912428532
418,1.7499682390979703594702356145968
419,1.7504500696948977454902127344447
420,1.7509307588136026825508483661521
421,1.7514103119627970019563837579964
422,1.7518887346130453256265999128583
423,1.7523660321971433660317484492903
424,1.7528422101104939702354497457823
425,1.7533172737114772927868672405621
426,1.7537912283218187098286970133927
427,1.7542640792269519647323663347125
428,1.7547358316763775647732948112398
429,1.7552064908840203472377553427476
430,1.7556760620285790832169330279551
431,1.7561445502538756290771564725615
432,1.7566119606692007816263171070130
433,1.7570782983496521815580162968965
434,1.7575435683364753699878682108554
435,1.7580077756373958288203887893208
436,1.7584709252269499132076508164970
437,1.7589330220468128449357511433211
438,1.7593940710061227564971832049121
439,1.7598540769818014750466293538632
440,1.7603130448188731255911889338711
441,1.7607709793307777216291137386483
442,1.7612278852996833154897134567103
443,1.7616837674767963649181261381425
444,1.7621386305826649443945435547917
445,1.7625924793074841412200482437440
446,1.7630453183113946703647412023720
447,1.7634971522247818871917635077251
448,1.7639479856485684264763488905842
449,1.7643978231545083187631711883952
450,1.7648466692854747473423021458978
451,1.7652945285557489601072619299624
452,1.7657414054513031891451327315492
453,1.7661873044300833329794546356212
454,1.7666322299222878026199417719232
455,1.7670761863306461678669215063119
456,1.7675191780306929138300272372421
457,1.7679612093710410167210301591504
458,1.7684022846736517485825895227467
459,1.7688424082341032390661139883694
460,1.7692815843218574512308472684438
461,1.7697198171805234361672256518619
462,1.7701571110281200950486425837096
463,1.7705934700573370684232685251947
464,1.7710288984357919301902135603245
465,1.7714634003062876720650380225173
466,1.7718969797870676268345775819905
467,1.7723296409720671290851345778941
468,1.7727613879311669477908756743469
469,1.7731922247104409868076581367623
470,1.7736221553324057977838045411265
471,1.7740511837962661932160093342385
472,1.7744793140781612785482136676434
473,1.7749065501314062761932713902083
474,1.7753328958867376681852586733833
475,1.7757583552525506036576285770797
476,1.7761829321151411091800616281502
477,1.7766066303389434599848434386589
478,1.7770294537667674139241909442216
479,1.7774514062200342242808609485069
480,1.7778724914990118536365106726299
481,1.7782927133830479682338496326208
482,1.7787120756308043111470949973918
483,1.7791305819804878647980775113474
484,1.7795482361500816541449425453579
485,1.7799650418375767000922450667422
486,1.7803810027211997417030349236451
487,1.7807961224596436109667556558609
488,1.7812104046922948927859754844254
489,1.7816238530394621357346293792975
490,1.7820364711026025153978135226682
491,1.7824482624645491246312094429106
492,1.7828592306897375204018837275023
493,1.7832693793244315451702462819532
494,1.7836787118969495613625249010562
495,1.7840872319178893375162904383122
496,1.7844949428803548782960230543599
497,1.7849018482601809334053509596459
498,1.7853079515161591819583340627965
499,1.7857132560902636428357112026240
500,1.786117765407877496651865070504
501,1.786521482878017122558294830131
502,1.786924411893560864360186471552
503,1.787326555831474055607065004773
504,1.787727918053038211339812106073
505,1.788128501904077300201267992423
506,1.788528310715186895787117833319
507,1.788927347801964126642205522853
508,1.789325616465238139012376198621
509,1.789723119991299380227559510827
510,1.790119861652133835939312441665
511,1.790515844705655535380429885997
512,1.790911072395941311193773000356
513,1.791305547953466519323332290432
514,1.791699274595342488738881986727
515,1.792092255525556172306805061167
516,1.792484493935210310099667906428
517,1.792875993002765284905116578926
518,1.793266755894284564563017595521
519,1.793656785763680626770327992830
520,1.794046085752964341700192014446
521,1.794434658992494730850508414835
522,1.794822508601233506602125364750
523,1.795209637687000963243768161804
