Eigenstate,Potential Energy
1,0.500000000160552225537582250186641099
2,0.64623093869912147642698411407066147
3,0.73633761278343658701406063084804070
4,0.79966528422639401260960405422097548
5,0.8480465863930110428290840303170377
6,0.8870660140581570862901391927801974
7,0.9197208486695598960856742357192244
8,0.9477838766093011647903456986723236
9,0.9723835968867529066634544549405298
10,0.9942802636525541023700971552285505
11,1.0140094470492641624288026877823153
12,1.0319622423827312017430560883627241
13,1.0484327797198126854232699613877372
14,1.0636477567446111272697798410273521
15,1.0777855545727037385691109538286980
16,1.090989042621615697604970170586054
17,1.103374412072342950218471906361080
18,1.115037426875564162859453271264714
19,1.126057946855627031197184191374994
20,1.136503265344490919010845324122335
21,1.146430615263428550884826964963854
22,1.155889080281769500334464279688479
23,1.164921072753427385089959675659481
24,1.173563491117323983859935128450657
25,1.181848636693317162797392401885715
26,1.189804947489789849877237939130850
27,1.197457591166226862342311346178339
28,1.204828948392255561553143559117999
29,1.211939010049598473051204895985806
30,1.218805706073898429790396672066791
31,1.225445179587438288889777504648223
32,1.231872016895877682107652169615919
33,1.238099441612481452148468701401880
34,1.244139479422768157842878270259687
35,1.250003098663311963377390137507001
36,1.255700330854952346579730924135231
37,1.261240374526581511525366039284572
38,1.266631685035260646655438769206742
39,1.271882052590567519360112316750230
40,1.276998670295257113878514268300054
41,1.281988193697566745209479558162301
42,1.286856793095504479878850906842206
43,1.291610199626973349220983496274094
44,1.296253746011489825111131655503683
45,1.300792402671685458915269247018743
46,1.305230809849644301690705140177219
47,1.309573306239652111226171506967049
48,1.313823954581346987170441483150233
49,1.317986564592598531526532888043498
50,1.32206471356731991807355300196883
51,1.32606176491795029175512390223588
52,1.32998088490399970473123226821309
53,1.33382505775559867720935312986708
54,1.33759709937343333968534452218242
55,1.34129966976297162068797594318714
56,1.34493528434081137397539595691214
57,1.34850632423378237399512214248769
58,1.35201504567663692211444540218079
59,1.35546358860140985883947303599848
60,1.35885398450050426952936525898751
61,1.36218816363599494359847709490414
62,1.36546796165934064207858498007126
63,1.36869512569845433938603294954023
64,1.37187131996276812521149623028138
65,1.37499813091139461247326512622311
66,1.37807707202463935821623449514024
67,1.38110958821485651301043738039065
68,1.38409705990888375359168653075950
69,1.38704080683097988275829058489186
70,1.38994209151226021227084570981352
71,1.39280212255002614077157108086035
72,1.39562205763808709635648048403893
73,1.39840300638712000703138923925488
74,1.40114603295229261372777368247403
75,1.40385215848374583945257363296480
76,1.40652236341408087138867200472993
77,1.40915758959569421434678706800728
78,1.41175874229963817578773871142546
79,1.41432669208663742264312142660936
80,1.41686227655995412451707859803066
81,1.41936630200894485637739599605872
82,1.42183954495139098328944610298661
83,1.42428275358199551595882311059207
84,1.42669664913381513413217381512328
85,1.42908192715883679873352389549966
86,1.43143925873339250822417842518095
87,1.43376929159364828387649734630682
88,1.43607265120598009091582973169210
89,1.43834994177666590032530211184989
90,1.44060174720497987937960583156002
91,1.44282863198345324692497951312874
92,1.44503114204877803188351666807817
93,1.44720980558656771840702296219944
94,1.44936513379294583236756959509595
95,1.45149762159571236984509164276902
96,1.45360774833763614615660300792390
97,1.45569597842423680186482545979765
98,1.45776276193824732790836744159544
99,1.45980853522279449981107581376770
100,1.46183372143518827051089433948391
101,1.46383873107308186719745399708053
102,1.46582396247463876282739882741602
103,1.46778980229423477937527980817889
104,1.46973662595511631517014050606056
105,1.47166479808034261491084780438395
106,1.47357467290324923671331207338069
107,1.47546659465859178858791948918000
108,1.47734089795544976719332274160810
109,1.47919790813290173818095585041258
110,1.48103794159942067732057138849980
111,1.48286130615687243040142612205201
112,1.48466830130995081627214757852736
113,1.48645921856182736158973020813811
114,1.48823434169674489809471905004867
115,1.48999394705024380472869209699622
116,1.49173830376766134526437070601387
117,1.49346767405151283911380188524284
118,1.49518231339832237187747814334317
119,1.49688247082543703848246455605022
120,1.49856838908833286952555907679107
121,1.50024030488888232419586277308488
122,1.50189844907503432001993365478658
123,1.50354304683232557674433978992953
124,1.50517431786762437186307549315892
125,1.50679247658547823903849058650756
126,1.50839773225742194336778947567552
127,1.50999028918458148956429752143393
128,1.51157034685388733193584918501041
129,1.51313810008819788180663714912251
130,1.51469373919061602616481343726802
131,1.51623745008326596720301609035887
132,1.51776941444078271522193589655711
133,1.51928980981875478578356799923848
134,1.52079880977734937604874061733435
135,1.52229658400033118689147582832575
136,1.52378329840968236985556336479240
137,1.52525911527601777008069958742446
138,1.52672419332497602433608394646018
139,1.52817868783976496739765521692551
140,1.52962275076002435404141518518475
141,1.53105653077716434643713349416410
142,1.53248017342633014346481774392846
143,1.53389382117513447831027250084563
144,1.53529761350929253106222104371954
145,1.53669168701528961527833544904310
146,1.53807617546020412874227479183135
147,1.53945120986880005566908346905282
148,1.54081691859800434958818617640042
149,1.54217342740887099806470209606475
150,1.54352085953613541034328476115623
151,1.54485933575545504238336130546354
152,1.54618897444842655867080615624629
153,1.54750989166546848072115704075723
154,1.54882220118665322174105102642195
155,1.55012601458056674366974424624991
156,1.55142144126127370319781436466530
157,1.55270858854345913360347568783079
158,1.55398756169581848075132972006280
159,1.5552584639927596663332277922106
160,1.5565213967644835161433068394756
161,1.5577764594455010497626624528856
162,1.5590237496216470930172285506382
163,1.5602633630756450667737688548532
164,1.5614953938312775889432213566301
165,1.5627199341962114901854349809418
166,1.5639370748035277591889948057029
167,1.5651469046520036501345667836956
168,1.5663495111451896415523261251554
169,1.5675449801293263089652674719043
170,1.5687333959301408547433137366715
171,1.5699148413885634899432633665292
172,1.5710893978954015351149426481368
173,1.5722571454250066427315834229221
174,1.5734181625679709850944414552829
175,1.5745725265628863929865752719852
176,1.5757203133271961517778173480583
177,1.5768615974871727158757590549357
178,1.5779964524070504962816053806949
179,1.5791249502173401665707255151902
180,1.5802471618423554340747576330915
181,1.5813631570269749252396486098123
182,1.5824730043626668809406435804134
183,1.5835767713127997114325212191384
184,1.5846745242372626528826898136400
185,1.5857663284164183340339519754597
186,1.5868522480744082220425622586611
187,1.5879323464018347484317113620009
188,1.5890066855778355519209025794829
189,1.5900753267915735696770946815049
190,1.5911383302631586285291347850385
191,1.5921957552640197591721081677666
192,1.5932476601367446160465008638270
193,1.5942941023144043072340456817654
194,1.5953351383393769756554089979391
195,1.5963708238816880644420547194465
196,1.5974012137568809589061912015708
197,1.5984263619434323809638895967853
198,1.5994463215997266985369626501550
199,1.6004611450806019843458363025427
200,1.6014708839534817648610759564392
201,1.6024755890141034364128853872410
202,1.6034753103018567252056415577424
203,1.6044700971147428465618140312276
204,1.6054599980239659789199135903673
205,1.6064450608881670185687031759689
206,1.6074253328673126345037342671661
207,1.6084008604362454947322338740730
208,1.6093716893979098861461452684205
209,1.6103378648962584715235004286534
210,1.6112994314288516800012973422192
211,1.6122564328591570907387309792577
212,1.6132089124285590376704894764312
213,1.6141569127680828140332682481023
214,1.6151004759098484531571981061078
215,1.6160396432982532925771088718787
216,1.6169744558008972767593925375740
217,1.6179049537192549583417591111542
218,1.6188311767991031712122107792976
219,1.6197531642407076492567352880405
220,1.6206709547087810998156355269628
221,1.6215845863422106350713945548855
222,1.6224940967635717596860751969770
223,1.6233995230884224764924888148896
224,1.6243009019343925705323493960328
225,1.6251982694300706289996624567027
226,1.6260916612236923360690987481359
227,1.6269811124916386865146398871080
228,1.6278666579467459294061176999012
229,1.6287483318464343951324768688171
230,1.6296261680006608931209220832608
231,1.6305001997796964706746282784478
232,1.6313704601217399430236721966199
233,1.6322369815403621812964989744872
234,1.6330997961317973057071170925896
235,1.6339589355820739563140011562640
236,1.6348144311739963414040172656835
237,1.6356663137939786849439399717511
238,1.6365146139387348054520542104604
239,1.6373593617218282632450788836159
240,1.6382005868800852308827140390711
241,1.6390383187798743695937676568388
242,1.6398725864232565691039138370528
243,1.6407034184540085831426393867078
244,1.6415308431635222504012833193546
245,1.6423548884965836756260261096162
246,1.6431755820570348910252556861188
247,1.6439929511133193814197461793495
248,1.6448070226039190553784549344204
249,1.6456178231426776325779559292362
250,1.6464253790240208332730678898802
251,1.6472297162280712711122336392312
252,1.6480308604256608490611650047154
253,1.6488288369832457319480276526959
254,1.6496236709677235538417750586883
255,1.6504153871511567416903789308264
256,1.6512040100154020420375235603843
257,1.6519895637566526436555173114742
258,1.6527720722898893423017207726740
259,1.6535515592532475526464804462895
260,1.6543280480123005553296986528910
261,1.6551015616642592945072105106190
262,1.6558721230420934529817270131446
263,1.6566397547185726572231502510785
264,1.6574044790102332649152060155481
265,1.6581663179812692620976317901087
266,1.6589252934473494395428118246817
267,1.6596814269793640635677620755941
268,1.6604347399071010770150862880495
269,1.6611852533228561024073416324069
270,1.6619329880849719735657480694600
271,1.6626779648213170818781894810929
272,1.6634202039326965190740167129469
273,1.6641597255962034619944431881959
274,1.6648965497685080108241139056807
275,1.6656306961890873588911766208356
276,1.6663621843833955750024923577384
277,1.6670910336659804850220900193311
278,1.6678172631435394101218905980780
279,1.6685408917179252677464572802776
280,1.6692619380890951318242372645721
281,1.6699804207580091448127743212911
282,1.6706963580294772817013958572620
283,1.6714097680149571823806260432643
284,1.6721206686353002129761029638977
285,1.6728290776234525675769113033975
286,1.6735350125271074393797622812315
287,1.6742384907113133249323842914759
288,1.6749395293610348677602525250784
289,1.6756381454836708940627784820761
290,1.6763343559115303777604278092352
291,1.6770281773042641807026330117018
292,1.6777196261512554579541607303766
293,1.6784087187739726390698827258721
294,1.6790954713282800275555345253035
295,1.6797798998067081110727084097229
296,1.6804620200406911735254980219545
297,1.6811418477027621464657427589982
298,1.6818193983087140224440578576042
299,1.6824946872197246392000562435487
300,1.6831677296444465914972114198287
301,1.6838385406410626884055867717600
302,1.6845071351193090555173997983085
303,1.6851735278424630619465221325797
304,1.6858377334292996565623787466192
305,1.6864997663560175490893313614851
306,1.6871596409581345066020011308383
307,1.6878173714323489549036731911241
308,1.6884729718383753709617456919739
309,1.6891264561007495636340826975463
310,1.6897778380106041860186538227537
311,1.6904271312274180827641308746645
312,1.6910743492807369941298592454128
313,1.6917195055718670184668493728176
314,1.6923626133755426465598537704219
315,1.6930036858415686969172640128327
316,1.6936427359964375373529314910156
317,1.6942797767449191414691227331198
318,1.6949148208716293415679502129928
319,1.6955478810425734301363363155235
320,1.6961789698066651220757338410325
321,1.6968080995972248078202341799854
322,1.6974352827334532233438481851383
323,1.6980605314218840629878622252992
324,1.6986838577578145245090576417993
325,1.6993052737267155609541193787468
326,1.6999247912056200895952865183799
327,1.7005424219644919920795750038343
328,1.7011581776675731087961991691728
329,1.7017720698747132165502676805027
330,1.7023841100426794358713142909467
331,1.7029943095264465216501758158174
332,1.7036026795804691139100405037377
333,1.7042092313599363433192987319148
334,1.7048139759220069920110670484921
335,1.7054169242270295417153574306716
336,1.7060180871397431848507374947355
337,1.7066174754304626889868250052652
338,1.7072150997762481922558990890500
339,1.7078109707620560135537127481535
340,1.7084050988818765888092461867420
341,1.7089974945398552674972587806915
342,1.7095881680513984877791552630154
343,1.7101771296442649900041874505261
344,1.7107643894596420849253024669884
345,1.7113499575532088193477729217672
346,1.7119338438961835381530973475864
347,1.7125160583763594330137007978208
348,1.7130966107991249152829574608862
349,1.7136755108884723846074004975814
350,1.7142527682879929631281513921597
351,1.7148283925618593112832897292332
352,1.7154023931957962369853717458403
353,1.7159747795980384129165423803997
354,1.7165455611002766478326935486911
355,1.7171147469585931096328422667851
356,1.7176823463543837435762981171968
357,1.7182483683952711594293458539014
358,1.7188128221160072674873174984023
359,1.7193757164793614458080831670586
360,1.7199370603770032150604672316582
361,1.7204968626303712056839103634860
362,1.7210551319915349401950814378004
363,1.7216118771440440689364232169614
364,1.7221671067037701274634411075753
365,1.7227208292197390977080070839826
366,1.7232730531749536979885195132659
367,1.7238237869872083430064321115158
368,1.7243730390098936134324525569973
369,1.7249208175327949203645897212852
370,1.7254671307828811324899262965846
371,1.7260119869250860759108096179739
372,1.7265553940630819218616853908561
373,1.7270973602400444899386064352568
374,1.7276378934394148385037619636400
375,1.7281770015856478993588328699739
376,1.7287146925449596809027733540226
377,1.7292509741260648995427087028768
378,1.7297858540809082799818594353243
379,1.7303193401053914402228096938170
380,1.7308514398400921969534227384302
381,1.7313821608709792487257980586831
382,1.7319115107301194402116637019914
383,1.7324394968963823706370242868018
384,1.7329661267961374019715535407112
385,1.7334914078039467836197964188910
386,1.7340153472432556515179827317601
387,1.7345379523870747541649423856089
388,1.7350592304586599496803273790968
389,1.7355791886321892601683793151202
390,1.7360978340334347885961277104699
391,1.7366151737404299359012012550346
392,1.7371312147841356524119284802122
393,1.7376459641491033279209084838999
394,1.7381594287741330377254663409136
395,1.7386716155529301433757849239148
396,1.7391825313347600467525121144857
397,1.7396921829251008813252974945501
398,1.7402005770862943091292770529408
399,1.7407077205381931564351562752058
400,1.7412136199588103623767884073440
401,1.7417182819849654711873550701032
402,1.7422217132129296028198370779942
403,1.7427239201990719204462327056092
404,1.7432249094605056942584840321315
405,1.7437246874757316423964449928640
406,1.7442232606852848828626010535807
407,1.7447206354923828479292858976760
408,1.7452168182635719094602443750673
409,1.7457118153293758324041027630687
410,1.7462056329849488386910654718982
411,1.7466982774907278213689120364464
412,1.7471897550730875841862446950323
413,1.7476800719250004916650652123814
414,1.7481692342066972736258705998150
415,1.7486572480463336030672403901419
416,1.7491441195406592276195599022750
417,1.7496298547556928700832507976181
418,1.7501144597274004456762295574123
419,1.7505979404623812771308111997979
420,1.7510803029385577114768602975266
421,1.7515615531058725328804560913656
422,1.7520416968869939167961377985129
423,1.7525207401780262477677767691603
424,1.7529986888492309247044904336106
425,1.7534755487457540682432527582186
426,1.7539513256883652989210482802621
427,1.7544260254742056607519199238437
428,1.7548996538775453235883866507141
429,1.7553722166505556277532892818592
430,1.7558437195240890173728061770537
431,1.7563141682084750855547452925972
432,1.7567835683943306376206614392226
433,1.7572519257533799064051868979872
434,1.7577192459392968554117442658088
435,1.7581855345885582755930537862833
436,1.7586507973213165057611555691136
437,1.7591150397422909167240351228454
438,1.7595782674416781727502552045106
439,1.7600404859960830392141527670575
440,1.7605017009694719546644870492150
441,1.7609619179141477374219020341738
442,1.7614211423717502677639431089405
443,1.7618793798742841422083805215912
444,1.7623366359451693440871862140703
445,1.7627929161003257667236039378493
446,1.7632482258492842052760640774881
447,1.7637025706963326698738029931686
448,1.7641559561416930193898297423666
449,1.7646083876827376416933377034593
450,1.7650598708152403292789627535833
451,1.7655104110346709684855146965267
452,1.7659600138375291253826481599454
453,1.7664086847227246484080540093121
454,1.7668564291930041984060273964797
455,1.7673032527564300062329042022130
456,1.7677491609279089967482818485251
457,1.7681941592307799938529889329283
458,1.7686382531984586112096135694827
459,1.7690814483761457546789154216196
460,1.7695237503226030090664570596473
461,1.7699651646119966230826034896692
462,1.7704056968358174210674878070905
463,1.7708453526048796306390764495224
464,1.7712841375514014625840503451112
465,1.7717220573311763992730072209860
466,1.7721591176258376455510435461756
467,1.7725953241452207075883456328689
468,1.7730306826298351899383908414386
469,1.7734651988534447824060424620093
470,1.7738988786257699095180561281531
471,1.7743317277953147476721806266427
472,1.7747637522523308745910626746536
473,1.7751949579319214409559815819030
474,1.7756253508173025263859759789056
475,1.7760549369432204309181241781477
476,1.7764837223995479706749319440924
477,1.7769117133350614534568607374149
478,1.7773389159614152080918964199253
479,1.7777653365573256836140016221698
480,1.7781909814729796493224671223317
481,1.7786158571346802817439054905506
482,1.7790399700497511387227283836219
483,1.7794633268117111360018219046839
484,1.7798859341057425037211549499724
485,1.7803077987144739101938911107235
486,1.7807289275240957453333180884898
487,1.7811493275308386762493412784902
488,1.7815690058478363675979594672339
489,1.7819879697124041182295498633463
490,1.7824062264937622440542471576157
491,1.7828237837012399914766935988789
492,1.7832406489929951694980483823246
493,1.7836568301852893214229336014521
494,1.7840723352623629523217147256820
495,1.7844871723869563710577635221297
496,1.7849013499115311125727966299323
497,1.7853148763902441614788497994370
498,1.7857277605917407859869446568139
499,1.7861400115128312478708189454063
500,1.786551638393127838366347724734
501,1.786962650730719583734352807659
502,1.787373058298981769550108111231
503,1.787782871164610464755913942176
504,1.788192099706998662465478563741
505,1.788600754639066896424203498382
506,1.789008847029686646993193195448
507,1.789416388327841054366884526254
508,1.789823390388685055123890288729
509,1.790229865501683413843407905923
510,1.790635826421032942870569936569
511,1.791041286398584932366876084432
512,1.791446259219519956037833201860
513,1.791850759241050759516878296180
514,1.792254801434463678965408479338
515,1.792658401430845853393522430427
516,1.793061575570885571836795996901
517,1.793464340959184129773055768332
518,1.793866715523573321095003432136
519,1.794268718079990717755225614826
520,1.794670368403543300015971961481
521,1.795071687306467144257282872788
522,1.795472696723794291978756134531
523,1.795873419807640967688810919345
