Eigenstate,Potential Energy
1,0.500000000032516812587130527712516892
2,0.64623093786336736193119649841226261
3,0.73633761032845048537974682406650442
4,0.79966527911286458106225831304104002
5,0.8480465775351689699017730714998832
6,0.8870660003511276641223812264823223
7,0.9197208289994258207023466090698708
8,0.9477838498572849554848576500331500
9,0.9723835619311486988635444021267553
10,0.9942802193696961005394717374334870
11,1.0140093923140415783962953508903034
12,1.0319621760688720707734440685546082
13,1.0484327007000418401833958054982041
14,1.0636476638907357309484923523541770
15,1.0777854467556550970238141755055434
16,1.090988918711463589089372649614892
17,1.103374270938292058824288519444041
18,1.115037267385938490695076433838647
19,1.126057767877846009864150282645654
20,1.136503065745039645509623381550355
21,1.146430393907823769566893386883563
22,1.155888836034522440110624227807223
23,1.164920804478004226114542642431930
24,1.173563197676104503946432723094596
25,1.181848316947551961017392818917981
26,1.189804600299556438600733356275774
27,1.197457215390384843922440444461987
28,1.204828542888401051986432044431991
29,1.211938573674017895723858967759549
30,1.218805237681521773490927518997211
31,1.225444678031791902667654101448654
32,1.231871481029036663247163116199287
33,1.238098870285021671080724670654903
34,1.244138871483717954227788827759393
35,1.250002452960103540128033539636664
36,1.255699646233372882749757419466673
37,1.261239649830724010351267384098318
38,1.266630919107474531356120710035246
39,1.271881244271408986333336646308850
40,1.276997818423439250537693095039033
41,1.281987297109909417753435253255663
42,1.286855850626883994688207734023390
43,1.291609210110271890256015035928845
44,1.296252708277544668591616901731687
45,1.300791315549237965648930978290915
46,1.305229672165288686649143191872133
47,1.309572116817783989318695075927193
48,1.313822712244111693614588794200256
49,1.317985268159839214742590338857095
50,1.32206336185652540262477892760405
51,1.32606035674420270850392200958879
52,1.32997941907992188507577725073854
53,1.33382353309130130799699400383275
54,1.33759551467646187516240435027877
55,1.34129802383825294763552283879218
56,1.34493357599060022599258368626450
57,1.34850455225760749072280793596263
58,1.35201320887124694903795953970144
59,1.35546168576071898317004558036837
60,1.35885201441553758753476911681817
61,1.36218612509483355463451457738256
62,1.36546585344706646446189974697096
63,1.36869294659709464314491905962927
64,1.37186906875123977665317721375937
65,1.37499580636544802541230817445350
66,1.37807467291680214662000305410094
67,1.38110711331437683973155297991694
68,1.38409450798167336977457423423433
69,1.38703817663955685242604415364877
70,1.38993938181569131652087397535350
71,1.39279933210386895593044830838459
72,1.39561918519433174036967092694365
73,1.39840005069413054828787847553421
74,1.40114299275474813644617021184080
75,1.40384903252258115968084960485531
76,1.40651915042642689759743142288618
77,1.40915428831481794652166517937143
78,1.41175535145488233685380517840233
79,1.41432321040335971598019617440862
80,1.41685870275946611125173304861025
81,1.41936263480845044606225466046026
82,1.42183578306392453150633221670211
83,1.42427889571635952230629085948130
84,1.42669269399451753398215397919163
85,1.42907787344602784206453492266136
86,1.43143510514280121876109313882700
87,1.43376503681651849168742597096136
88,1.43606829392900603153741633319406
89,1.43834548068192737340663057360451
90,1.44059718096987695975303565058613
91,1.44282395928064054092865287036590
92,1.44502636154609847167654160447112
93,1.44720491594698588693193732771601
94,1.44936013367448081152823178944704
95,1.45149250965137010437946221789031
96,1.45360252321534131559451216322866
97,1.45569063876676419286870901235272
98,1.45775730638315269920363962529519
99,1.45980296240234493181704472006473
100,1.46182802997629199168842365646105
101,1.46383291959721754903160456688774
102,1.46581802959778427526441291201995
103,1.46778374662679539843263185840534
104,1.46973044610185237433522117827543
105,1.47165849264029659184058550739536
106,1.47356824046967226664020665196690
107,1.47546003381886959573042839688091
108,1.47733420729102800535878753282290
109,1.47919108621921073163721664390880
110,1.48103098700579955289925588657566
111,1.48285421744649263167999556850505
112,1.48466107703973899056397447673785
113,1.48645185728238761035211802758903
114,1.48822684195228038124257363997040
115,1.48998630737847768921764942734311
116,1.49173052269975708818088742663695
117,1.49345975011199379538149420392062
118,1.49517424510499071655787008495712
119,1.49687425668929199351558602943781
120,1.49856002761348822462025311333959
121,1.50023179457248324144148084326007
122,1.50188978840717341165133264620879
123,1.50353423429595824534871613508604
124,1.50516535193848340217245130319506
125,1.50678335573198763030271668138264
126,1.50838845494060997115295292014296
127,1.50998085385799298566798797331610
128,1.51156075196349517095421089805164
129,1.51312834407231366272951803576958
130,1.51468382047979993721352594106754
131,1.51622736710023582196044195931649
132,1.51775916560032214793634174817870
133,1.51927939352762059355828317090439
134,1.52078822443417799545433423176666
135,1.52228582799554429236075068708609
136,1.52377237012539158104220040598224
137,1.52524801308592845517765596503452
138,1.52671291559429018616360189109829
139,1.52816723292508319888085083169353
140,1.52961111700924684950291417902690
141,1.53104471652939095493387018817763
142,1.53246817701175945019678566179738
143,1.53388164091496189992419880634571
144,1.53528524771560741046548759201429
145,1.53667913399097130136658483602310
146,1.53806343349881702622680194341657
147,1.53943827725448762997140656788054
148,1.54080379360538207154530585562187
149,1.54216010830291821295890407316286
150,1.54350734457208611554006392679649
151,1.54484562317868755762232111945813
152,1.54617506249435207281473653370085
153,1.54749577855941845852239494116880
154,1.54880788514376565393418062382781
155,1.55011149380567122344509051662748
156,1.55140671394877531185011640551320
157,1.55269365287722111788650626874150
158,1.55397241584904370419917298464143
159,1.5552431061278708165356235361227
160,1.5565058250330020496813436142211
161,1.5577606719879248562277201766931
162,1.5590077445673268592450182523288
163,1.5602471385426593221308196054551
164,1.5614789479263064122001790447312
165,1.5627032650144088582062435818140
166,1.5639201804283925173511644851468
167,1.5651297831552490840780105979891
168,1.5663321605866116295283770511646
169,1.5675273985566700337273293210542
170,1.5687155813789660535827954095455
171,1.5698967918821082211310859155486
172,1.5710711114444444386578911061155
173,1.5722386200277276729965248638954
174,1.5733993962098105924886345021639
175,1.5745535172164031315115867071254
176,1.5757010589519226888964370416052
177,1.5768420960294702207451532513227
178,1.5779767017999613820144046458431
179,1.5791049483804391617828863985310
180,1.5802269066815989585721534006225
181,1.5813426464345487442782940473047
182,1.5824522362168320120708312661288
183,1.5835557434777365575038362076939
184,1.5846532345629133343463179818795
185,1.5857447747383271932262373418761
186,1.5868304282135604716780544502135
187,1.5879102581644932360624020616817
188,1.5889843267553756116426266403124
189,1.5900526951603159318766585912839
190,1.5911154235842003579692081198902
191,1.5921725712830631912032841029906
192,1.5932241965839242602203729471839
193,1.5942703569041116870631091695323
194,1.5953111087700833727282555092153
195,1.5963465078357651345533572771833
196,1.5973766089004191873011796202375
197,1.5984014659260573432265048591066
198,1.5994211320544130930677671949762
199,1.6004356596234854017805749661747
200,1.6014451001836681591752946316738
201,1.6024495045134762618390189183358
202,1.6034489226348817024548030608405
203,1.6044434038282703212013607425998
204,1.6054329966470308340964562371230
205,1.6064177489317861035973188074529
206,1.6073977078242796701566299549334
207,1.6083729197809234153609394894863
208,1.6093434305860205780578150689899
209,1.6103092853646698663007137518209
210,1.6112705285953621607122860367043
211,1.6122272041222771682240051584327
212,1.6131793551672902533158214955725
213,1.6141270243416938246454523997023
214,1.6150702536576482527523790982708
215,1.6160090845393615250628886637749
216,1.6169435578340115926484184425981
217,1.6178737138224153677741157958505
218,1.6187995922294533446822954744350
219,1.6197212322342531165414277521133
220,1.6206386724801442966828393292345
221,1.6215519510843827464094464114330
222,1.6224611056476613067365047084018
223,1.6233661732634005948895669302876
224,1.6242671905268349248522175976482
225,1.6251641935438959085002611077780
226,1.6260572179398972752570289827047
227,1.6269462988680295531104663929838
228,1.6278314710176664211851280164593
229,1.6287127686224898860063750765902
230,1.6295902254684389676870710170693
231,1.6304638749014836852931212988760
232,1.6313337498352347502944058305321
233,1.6321998827583839535912910549675
234,1.6330623057419913921681994292193
235,1.6339210504466127064595313003441
236,1.6347761481292760271816937809335
237,1.6356276296503122517431591009334
238,1.6364755254800403812283345213736
239,1.6373198657053133535195426896428
240,1.6381606800359265259580738996536
241,1.6389979978108930888760530712053
242,1.6398318480045892659324301412238
243,1.6406622592327733320088809504064
244,1.6414892597584801368836071362190
245,1.6423128774977955077762105138298
246,1.6431331400255130493127026066863
247,1.6439500745806747226775463687501
248,1.6447637080720027844883615726961
249,1.6455740670832180538899079031339
250,1.6463811778782548919692347819660
251,1.6471850664063707928997936299711
252,1.6479857583071533847107344324974
253,1.6487832789154299112802239810467
254,1.6495776532660788518063017396652
255,1.6503689060987475571801903862885
256,1.6511570618624759880254436078347
257,1.6519421447202329451429446145335
258,1.6527241785533612364165894583562
259,1.6535031869659385830263267704079
260,1.6542791932890546506688089190243
261,1.6550522205850045188393041206921
262,1.6558222916514033129023937317297
263,1.6565894290252208488348271257882
264,1.6573536549867417407941581193835
265,1.6581149915634494960418727697833
266,1.6588734605338367642541416133043
267,1.6596290834311449537530869460103
268,1.6603818815470332476584879375058
269,1.6611318759351812891596967989471
270,1.6618790874148212593330819661320
271,1.6626235365742086307419925738139
272,1.6633652437740255756640121511075
273,1.6641042291507244713404193354918
274,1.6648405126198087105460064195634
275,1.6655741138790546923388929647875
276,1.6663050524116732706232692608853
277,1.6670333474894181438189454257094
278,1.6677590181756329395658136557923
279,1.6684820833282484969116187033313
280,1.6692025616027224388332838778354
281,1.6699204714549289238988702670360
282,1.6706358311439960733224408747291
283,1.6713486587350942858426829980704
284,1.6720589721021725969442363472016
285,1.6727667889306498896670141022854
286,1.6734721267200569817324576513845
287,1.6741750027866346482626426178550
288,1.6748754342658839818521876512201
289,1.6755734381150737380415214886415
290,1.6762690311157053987031778667246
291,1.6769622298759337942660434957970
292,1.6776530508329461696678576015526
293,1.6783415102553035997955665887768
294,1.6790276242452397913124484942727
295,1.6797114087409193580011335893031
296,1.6803928795186631551672940118700
297,1.6810720521951306048132356393585
298,1.6817489422294683283171868646277
299,1.6824235649254218894582302454052
300,1.6830959354334123983748783251396
301,1.6837660687525783878767640205563
302,1.6844339797327850550245496251864
303,1.6850996830765980410889693766335
304,1.6857631933412253274003340193109
305,1.6864245249404286755974067818253
306,1.6870836921464038754772396518481
307,1.6877407090916269824019921035011
308,1.6883955897706740226929785255602
309,1.6890483480420102562803891853621
310,1.6896989976297493317565896702799
311,1.6903475521253859287389664529342
312,1.6909940249894994006768986772463
313,1.6916384295534298108542015991675
314,1.6922807790209281658632300572738
315,1.6929210864697801661964977151524
316,1.6935593648534048496005377096528
317,1.6941956270024256657994151621892
318,1.6948298856262193338362731715057
319,1.6954621533144396235975031926989
320,1.6960924425385160627808998447507
321,1.6967207656531314882452489937776
322,1.6973471348976745561754987819013
323,1.6979715623976707251055655535196
324,1.6985940601661906889423461845446
325,1.6992146401052380219745162794974
326,1.6998333140071142730965823859480
327,1.7004500935557643300068985972973
328,1.7010649903280992425780363852136
329,1.7016780157953014802615304984813
330,1.7022891813241090551965652791011
331,1.7028984981780799496026982989232
332,1.7035059775188379086843965280897
333,1.7041116304072999775885569133250
334,1.7047154678048839664248087469052
335,1.7053175005747001582668862528360
336,1.7059177394827233181730037204446
337,1.7065161951989478754572489127600
338,1.7071128782985273380502794421222
339,1.7077077992628940034423297025287
340,1.7083009684808650575352888721008
341,1.7088923962497307749681958927782
342,1.7094820927763273180512531291597
343,1.7100700681780937720847948891646
344,1.7106563324841134107563130782673
345,1.7112408956361410109368967604352
346,1.7118237674896136916581696115448
347,1.7124049578146488426158602847606
348,1.7129844762970259539104098295148
349,1.7135623325391558919364489613226
350,1.7141385360610351637491338517159
351,1.7147130963011872574981475305572
352,1.7152860226175907412824743997249
353,1.7158573242885934047919387466440
354,1.7164270105138138582001655662162
355,1.7169950904150309535808215691818
356,1.7175615730370592386251390716345
357,1.7181264673486136816942127127506
358,1.7186897822431629122022707117563
359,1.7192515265397667214663061116432
360,1.7198117089839067619368190674451
361,1.7203703382483021896753759638040
362,1.7209274229337167316764880816338
363,1.7214829715697517736437124621442
364,1.7220369926156304922118553801473
365,1.7225894944609712679809351239333
366,1.7231404854265492570299682769389
367,1.7236899737650490129197056510610
368,1.7242379676618049479135652968373
369,1.7247844752355342659613529652764
370,1.7253295045390580806219098601014
371,1.7258730635600135712341903463107
372,1.7264151602215561338174032881647
373,1.7269558023830514934168156043974
374,1.7274949978407620863769681389305
375,1.7280327543285184041133923537893
376,1.7285690795183867546008022459442
377,1.7291039810213252307914993749235
378,1.7296374663878310533768630632117
379,1.7301695431085811276970258534835
380,1.7307002186150625715663853942950
381,1.7312295002801960894537622160734
382,1.7317573954189493111899897469416
383,1.7322839112889447698681665019377
384,1.7328090550910574826404495198536
385,1.7333328339700057556692418474484
386,1.7338552550149358718885789669058
387,1.7343763252599964109147469971889
388,1.7348960516849061379066118826490
389,1.7354144412155161360629657418227
390,1.7359315007243633718642410094268
391,1.7364472370312160099998776054919
392,1.7369616569036140863584513079147
393,1.7374747670574030125675453272231
394,1.7379865741572584931797822134073
395,1.7384970848172057123772976474205
396,1.7390063056011324410622308303420
397,1.7395142430232956942402021104834
398,1.7400209035488219468310857018882
399,1.7405262935941994736974075908725
400,1.7410304195277671138481687099685
401,1.7415332876701955077364735298556
402,1.7420349042949615528681059832445
403,1.7425352756288188984599276611033
404,1.7430344078522623722380144873835
405,1.7435323070999838048208092068566
406,1.7440289794613253607220608733930
407,1.7445244309807274926940656196574
408,1.7450186676581690226053360458852
409,1.7455116954496022099308371624895
410,1.7460035202673853223338682960079
411,1.7464941479807069683587564825185
412,1.7469835844160057748245751428646
413,1.7474718353573864879815632777178
414,1.7479589065470289222768572020710
415,1.7484448036855940406945629603582
416,1.7489295324326235963052069073393
417,1.7494130984069361835136886762794
418,1.7498955071870168622452779338666
419,1.7503767643114046335839173717485
420,1.7508568752790727487880643712908
421,1.7513358455498058038719001147394
422,1.7518136805445729013572492558274
423,1.7522903856458947153412879287286
424,1.7527659661982080736078342348045
425,1.7532404275082244361474028858179
426,1.7537137748452858769293265176358
427,1.7541860134417160535612814878817
428,1.7546571484931661785272268751323
429,1.7551271851589599043962755308486
430,1.7555961285624299851126450198730
431,1.7560639837912542170247489897857
432,1.7565307558977878091724089254755
433,1.7569964498993875207335487521858
434,1.7574610707787386635713866921644
435,1.7579246234841727935608146758938
436,1.7583871129299839916885061478559
437,1.7588485439967418963003635852391
438,1.7593089215316004685646979655195
439,1.7597682503486031724596454001440
440,1.7602265352289856405021598947603
441,1.7606837809214729850754978974658
442,1.7611399921425753190055531086261
443,1.7615951735768811330852334564225
444,1.7620493298773431499219349672230
445,1.7625024656655659847706369538207
446,1.7629545855320866377057972256631
447,1.7634056940366549863044392672986
448,1.7638557957085074970458895233628
449,1.7643048950466419959365484987423
450,1.7647529965200856508047207249901
451,1.7652001045681636683641450969835
452,1.7656462236007615473976501858571
453,1.7660913579985866311373560067206
454,1.7665355121134253477944200242317
455,1.7669786902683997631142654846776
456,1.7674208967582187419614540335411
457,1.7678621358494284146448907123199
458,1.7683024117806583438844397266414
459,1.7687417287628659063486487102991
460,1.7691800909795785311110722671985
461,1.7696175025871316447551022270339
462,1.7700539677149055361828054209273
463,1.7704894904655597449037003068140
464,1.7709240749152631337151340145075
465,1.7713577251139236145152246412554
466,1.7717904450854146579516779601276
467,1.7722222388277978674282271401632
468,1.7726531103135466331157626264136
469,1.7730830634897633426736643610318
470,1.7735121022783976732251481363269
471,1.7739402305764602317043707816720
472,1.7743674522562358411920820323300
473,1.7747937711654918241513387551184
474,1.7752191911276887865628536816456
475,1.7756437159421828257255509076210
476,1.7760673493844316755334983461252
477,1.7764900952061951222356484505243
478,1.7769119571357343666749488144755
479,1.7773329388780092223982832962794
480,1.7777530441148735442287974132853
481,1.7781722765052674381829005720881
482,1.7785906396854098215285442960878
483,1.7790081372689867129893075798732
484,1.7794247728473380728591213679764
485,1.7798405499896446699120532234919
486,1.7802554722431095599077930492847
487,1.7806695431331410244862909924581
488,1.7810827661635315669436207518091
489,1.7814951448166361929995972984579
490,1.7819066825535478396097063347725
491,1.7823173828142720860284200917583
492,1.7827272490178997352386204928889
493,1.7831362845627772406772252355342
494,1.7835444928266760722196494199479
495,1.7839518771669592138403959652090
496,1.7843584409207480372903502254835
497,1.7847641874050852372281529781486
498,1.7851691199170977729779228889305
499,1.7855732417341573141481264601565
500,1.785976556114040320497232246398
501,1.786379066295083501970477934162
502,1.786780775496342113969256598881
503,1.787181686917742555859280940429
504,1.787581803740237116432795384969
505,1.787981129125953713663539791759
506,1.788379666218346358714037318444
507,1.788777418142344192091251058786
508,1.789174388004498731776397599938
509,1.789570578893127564082442740858
510,1.789965993878460530337143097238
511,1.790360636012781640328775988801
512,1.790754508330570612570596894536
513,1.791147613848642656978530429624
514,1.791539955566287176289838755329
515,1.791931536465405760379288015423
516,1.792322359510647683728945253558
517,1.792712427649543980705826214929
518,1.793101743812641883953378832481
519,1.793490310913636407760780187894
520,1.793878131849501933337729756080
521,1.794265209500620591146713807016
522,1.794651546730911716420701695666
523,1.795037146387958814952115588459
