Eigenstate,Potential Energy
1,0.500000000041276532986910377165546284
2,0.64623093792054632550046279693871960
3,0.73633761049640941376167525211998606
4,0.79966527946270481140479848727737153
5,0.8480465781411659596725056201888449
6,0.8870660012888581232317501135569963
7,0.9197208303450777456135409152888625
8,0.9477838516873699758660977471743101
9,0.9723835643223684020587403392960958
10,0.9942802223988742623167906942669610
11,1.0140093960580874194787387509889057
12,1.0319621806047593237514895530565816
13,1.0484327061047964237735400858642450
14,1.0636476702414283779092314298442936
15,1.0777854541293969706387990491072736
16,1.090988927185403777045037519541628
17,1.103374280589616288437361820848375
18,1.115037278291868663341263724736962
19,1.126057780115640299856110562359451
20,1.136503079391992997298041103092002
21,1.146430409041268682109643492810777
22,1.155888852731829962310053242480479
23,1.164920822816585110139973039303680
24,1.173563217733410478580235681117357
25,1.181848338801077097615798876002431
26,1.189804624026838589524574050610528
27,1.197457241069007138426685094101118
28,1.204828570595993438241821115135264
29,1.211938603488258720325977455071715
30,1.218805269680139391790093458233124
31,1.225444712292566314729539811005414
32,1.231871517629801171368668543199856
33,1.238098909303664555635835501751236
34,1.244138912998184165272973855316217
35,1.250002497048396402705712943844012
36,1.255699692973555814227309164628317
37,1.261239699300922248448279731505192
38,1.266630971385876871763527991591157
39,1.271881299436269529029247394186490
40,1.276997876553079154067099303586449
41,1.281987358282718660870836840828529
42,1.286855914921323144869937179502942
43,1.291609277604873878677572673534470
44,1.296252779050916571238456982104935
45,1.300791389680062790289870922191170
46,1.305229749732327165452250242848971
47,1.309572197899876376931998148961471
48,1.313822796920179570569756015320418
49,1.317985356508887296069986570315663
50,1.32206345395764335159403398887279
51,1.32606045267656695542609902240839
52,1.32997951892279745112200682387522
53,1.33382363692404363400459152883383
54,1.33759562257851865541344390760988
55,1.34129813588916596860491074522535
56,1.34493369227000721007317212294175
57,1.34850467284524394494424410244574
58,1.35201333384694801880401268965037
59,1.35546181520442131104616883288936
60,1.35885214840728117712390195109234
61,1.36218626371476363958459953489727
62,1.36546599677543538265352432812818
63,1.36869309471426371611181212261762
64,1.37186922173768119429219105226921
65,1.37499596430174673604303983521709
66,1.37807483588365775245735558250592
67,1.38110728139260549783738076970656
68,1.38409468125220969855716039350639
69,1.38703835518345584375854835603021
70,1.38993956571413025355199844997696
71,1.39279952143814933666262543166031
72,1.39561938004588120708185626365159
73,1.39840025114450482288178024104852
74,1.40114319888563296179629390023647
75,1.40384924441579424707026107319975
76,1.40651936816391988032247187007214
77,1.40915451197867833975020228388491
78,1.41175558112733550382283947333546
79,1.41432344616677084061979268692462
80,1.41685894469634217732337980167565
81,1.41936288300144222290082396200554
82,1.42183603759582856645584280850333
83,1.42427915667012013994065994857560
84,1.42669296145322884220308758833615
85,1.42907814749293574516962887184750
86,1.43143538586130543757612917633535
87,1.43376532429017459085771114036986
88,1.43606858824152745407391734890087
89,1.43834578191718748258344594967649
90,1.44059748921191108845363019148510
91,1.44282427461364804853907233860593
92,1.44502668405444480862464601564906
93,1.44720524571520466697250757800734
94,1.44936047078727589187457121508475
95,1.45149285419361767378295010205933
96,1.45360287527209199047429843105800
97,1.45569099842324512159459934588386
98,1.45775767372476967463592620072489
99,1.45980333751468451220788904766320
100,1.46182841294512363005012865479341
101,1.46383331050849573107795101597498
102,1.46581842853765066603198104858406
103,1.46778415368158099768983131885894
104,1.46973086135807968088756667438265
105,1.47165891618468177684152404988657
106,1.47356867238912735601763316791082
107,1.47546047420050466183980802562032
108,1.47733465622215336797462883146052
109,1.47919154378733916839546254392655
110,1.48103145329864851930398045505678
111,1.48285469255198649078862372311566
112,1.48466156104601125246608002965890
113,1.48645235027778318155771403260910
114,1.48822734402535782409665398786239
115,1.48998681861801149145858615687251
116,1.49173104319473994276120552610958
117,1.49346027995163889067041467189545
118,1.49517478437873403704578759198571
119,1.49687480548679463114172862858475
120,1.49856058602463870084559476023079
121,1.50023236268739984018984558346072
122,1.50189036631620652324261522019652
123,1.50353482208969272154908267741932
124,1.50516594970774092248728862887052
125,1.50678396356782907963909623058727
126,1.50838907293433782897934839979943
127,1.50998148210115372679992390741289
128,1.51156139054788167809553667396871
129,1.51312899308996765090001661475849
130,1.51468448002301439019457054495868
131,1.51622803726155744089139551791360
132,1.51775984647255381219553773379293
133,1.51928008520382383406334803625726
134,1.52078892700767548051775391006402
135,1.52228654155992232623767224358202
136,1.52377309477450261530849053869813
137,1.52524874891389361307737699416003
138,1.52671366269550180006612248416251
139,1.52816799139420736098904126716240
140,1.52961188694122597595492450056082
141,1.53104549801944636344217223991707
142,1.53246897015539395136935017892652
143,1.53388244580796240241378797927724
144,1.53528606445404754009437015496487
145,1.53667996267121403437503765626611
146,1.53806427421751733679508366509667
147,1.53943913010859515216613257205119
148,1.54080465869214377584234343726715
149,1.54216098571988109749626524004827
150,1.54350823441709991225540127254306
151,1.54484652554990745343115982205456
152,1.54617597749024144598671064759099
153,1.54749670627875163041412451384960
154,1.54880882568563065623883517118414
155,1.55011244726947258111997466121302
156,1.55140768043423684188508336129199
157,1.55269463248438874407729366716017
158,1.55397340867828828809121033244559
159,1.5552441122798910047053607514920
160,1.5565068446088271375234840281699
161,1.5577617050889176684183367936992
162,1.5590087912951866470518556571576
163,1.5602481989994246777437241646015
164,1.5614800222143582002560236146630
165,1.5627043532364731646844049865904
166,1.5639212826875436160169065884420
167,1.5651308995549124206529450967686
168,1.5663332912305668237686836576358
169,1.5675285435490538995919628687260
170,1.5687167408242756376756319151258
171,1.5698979658852038596025958063283
172,1.5710723001105528327535812399996
173,1.5722398234624449834410104447196
174,1.5734006145191055528961219673927
175,1.5745547505066201810150531670116
176,1.5757023073297851241896889252373
177,1.5768433596020833677336698535138
178,1.5779779806748157872726753976295
179,1.5791062426654138040177673319783
180,1.5802282164849644802936455983352
181,1.5813439718649707038809481448463
182,1.5824535773833741565309479829109
183,1.5835571004898641158994093454067
184,1.5846546075304963324087756896194
185,1.5857461637716437891348501257860
186,1.5868318334233003133099629549105
187,1.5879116796617608399130750896613
188,1.5889857646516937636337506961476
189,1.5900541495676291102704206055747
190,1.5911168946148781786100315882682
191,1.5921740590499038753101772860943
192,1.5932257012001581249551735894224
193,1.5942718784834046591020844927710
194,1.5953126474265405250666259060534
195,1.5963480636839342467746668584451
196,1.5973781820552943295454487281200
197,1.5984030565030824840936030662445
198,1.5994227401694857316945403135270
199,1.6004372853929602243326555328367
200,1.6014467437243607199969336035708
201,1.6024511659426666895064395597723
202,1.6034506020703184309812445456313
203,1.6044451013881738466442315404923
204,1.6054347124500974968195361235513
205,1.6064194830971918964434076462380
206,1.6073994604716840727885928621454
207,1.6083746910304732550316654877945
208,1.6093452205583539170721273181597
209,1.6103110941809199164349728691730
210,1.6112723563771612248599731935613
211,1.6122290509917606095382978049833
212,1.6131812212471004921229273610212
213,1.6141289097549843634051571068614
214,1.6150721585280877293450019450641
215,1.6160110089911377946848165875583
216,1.6169455019918358386010608263950
217,1.6178756778115262414340479516088
218,1.6188015761756211349433923512769
219,1.6197232362637839490225100843142
220,1.6206406967198843629976728970795
221,1.6215539956617225637986400166581
222,1.6224631706905400083640966538184
223,1.6233682589003102511101632236851
224,1.6242692968868248957576145911751
225,1.6251663207565772280578708925059
226,1.6260593661354470673553757794767
227,1.6269484681771954798303614904123
228,1.6278336615717711636186303065446
229,1.6287149805534356579487959047813
230,1.6295924589087120625305564474793
231,1.6304661299841590564541282240837
232,1.6313360266939806255105294241226
233,1.6322021815274664834264463881849
234,1.6330646265562793330690138988837
235,1.6339233934415821387089425695340
236,1.6347785134410151080999076856071
237,1.6356300174155260044892745128830
238,1.6364779358360555195601848116034
239,1.6373222987900831428725412226014
240,1.6381631359880356812083367027788
241,1.6390004767695627091565183938043
242,1.6398343501096818068744730191490
243,1.6406647846247976157864653670885
244,1.6414918085785964004404586453170
245,1.6423154498878204896209594059111
246,1.6431357361279251152710056529159
247,1.6439526945386190309941966159019
248,1.6447663520292964906768150836916
249,1.6455767351843555557309604310070
250,1.6463838702684131150647122531279
251,1.6471877832314145171918933683078
252,1.6479884997136406123815817371610
253,1.6487860450506172764512677210615
254,1.6495804442779270724614277517102
255,1.6503717221359269297411452950434
256,1.6511599030743719250128010925580
257,1.6519450112569515563606587826664
258,1.6527270705657349541029591363168
259,1.6535061046055318314190745805464
260,1.6542821367081695604369758980166
261,1.6550551899366866868394540779125
262,1.6558252870894476077219474222831
263,1.6565924507041772625902669623440
264,1.6573567030619212876572326551106
265,1.6581180661909301579719109064712
266,1.6588765618704694844202988382523
267,1.6596322116345596781352446581172
268,1.6603850367756450153216363970612
269,1.6611350583481963717015680589085
270,1.6618822971722433500107409872974
271,1.6626267738368450837885474866564
272,1.6633685087034936963128715220058
273,1.6641075219094578570796262609887
274,1.6648438333710636441317604786753
275,1.6655774627869165871028580533300
276,1.6663084296410631686146536958908
277,1.6670367532060992673283754200967
278,1.6677624525462172965841448899343
279,1.6684855465202035410834422388222
280,1.6692060537843777844708849414556
281,1.6699239927954831166291325642715
282,1.6706393818135234169458883970785
283,1.6713522389045517259899350975895
284,1.6720625819434066621225516490268
285,1.6727704286164036902960857161145
286,1.6734757964239772677754505597607
287,1.6741787026832789260657941831904
288,1.6748791645307276908131507758088
289,1.6755771989245174877338928731685
290,1.6762728226470822670919978031366
291,1.6769660523075166876562439174161
292,1.6776569043439552450355652612847
293,1.6783453950259137501592647718818
294,1.6790315404565881948090680954601
295,1.6797153565751130913396634443060
296,1.6803968591587868721406061173487
297,1.6810760638252542805568200821723
298,1.6817529860346550700113488675511
299,1.6824276410917358141791111833120
300,1.6831000441479265788072073817979
301,1.6837702102033828666103974485203
302,1.6844381541089949281650460373309
303,1.6851038905683616119213746462816
304,1.6857674341397323308538122432579
305,1.6864287992379185742676796858619
306,1.6870880001361742279725266803480
307,1.6877450509680418847875033646839
308,1.6883999657291726238182406723799
309,1.6890527582791153477832669825322
310,1.6897034423430760135469627784300
311,1.6903520315136503507752098398190
312,1.6909985392525275818581124535045
313,1.6916429788921665358604993501629
314,1.6922853636374459607873680384280
315,1.6929257065672883538196491571924
316,1.6935640206362586851757102580110
317,1.6942003186761355542164497399549
318,1.6948346133974601290531153110841
319,1.6954669173910600112332600632919
320,1.6960972431295480267769616614945
321,1.6967256029687998625120314545884
322,1.6973520091494066621537591104616
323,1.6979764737981060961824529733146
324,1.6985990089291908826738134477632
325,1.6992196264458965210782318346832
326,1.6998383381417664761903573133300
327,1.7004551557019976330805667065389
328,1.7010700907047632121986401072279
329,1.7016831546225181195239405385317
330,1.7022943588232831634447364636462
331,1.7029037145719095769591712063607
332,1.7035112330313249064388957017172
333,1.7041169252637606455094728899894
334,1.7047208022319597980707884896820
335,1.7053228748003686853892624352976
336,1.7059231537363090553137545960826
337,1.7065216497111333658607712166714
338,1.7071183733013643020217827709185
339,1.7077133349898145902993405923826
340,1.7083065451666932023142592672384
341,1.7088980141306936610619651857112
342,1.7094877520900669469688759906949
343,1.7100757691636786415399864452036
344,1.7106620753820503023061882000193
345,1.7112466806883868884084108111192
346,1.7118295949395877116159668478356
347,1.7124108279072444781399903198754
348,1.7129903892786232329705997618352
349,1.7135682886576337516641319074431
350,1.7141445355657839219272476252275
351,1.7147191394431212026040176868092
352,1.7152921096491608424376683063328
353,1.7158634554638001429897324892381
354,1.7164331860882201801994670289662
355,1.7170013106457753498735242418405
356,1.7175678381828689469019890971904
357,1.7181327776698180172527477974594
358,1.7186961380017067267600740760631
359,1.7192579279992239918609064769042
360,1.7198181564094943102139662925548
361,1.7203768319068935360865685518087
362,1.7209339630938560821269745166528
363,1.7214895585016681431524582717661
364,1.7220436265912519659655236931142
365,1.7225961757539394015852777436613
366,1.7231472143122336175826661556705
367,1.7236967505205618625508718139617
368,1.7242447925660160714617072774362
369,1.7247913485690859444752418695119
370,1.7253364265843802124007332012666
371,1.7258800346013389421420787931217
372,1.7264221805449358386311195910906
373,1.7269628722763705099895474811299
374,1.7275021175937550044244888305601
375,1.7280399242327853104537476405500
376,1.7285762998674092767037461585731
377,1.7291112521104827405181865112394
378,1.7296447885144170328160237752674
379,1.7301769165718196990306961448032
380,1.7307076437161251929230161446301
381,1.7312369773222184187346569508283
382,1.7317649247070482398812819978872
383,1.7322914931302356288785476500809
384,1.7328166897946714222323492054120
385,1.7333405218471073015803106342382
386,1.7338629963787406597684868618644
387,1.7343841204257891012317450110477
388,1.7349039009700585135087118133945
389,1.7354223449395053846077099658771
390,1.7359394592087905553629404491472
391,1.7364552505998247237522289851384
392,1.7369697258823093095861503043934
393,1.7374828917742701530868778909104
394,1.7379947549425826284865908972716
395,1.7385053220034910295502808496197
396,1.7390145995231218779246595796574
397,1.7395225940179907842541990981697
398,1.7400293119555028702338761014597
399,1.7405347597544453174235618812304
400,1.7410389437854763428184163504254
401,1.7415418703716066501301153371466
402,1.7420435457886741020328540037009
403,1.7425439762658144341509303315295
404,1.7430431679859259039161742270745
405,1.7435411270861253397792122920378
406,1.7440378596582016998492237639779
407,1.7445333717490642567226165360245
408,1.7450276693611829117354145844908
409,1.7455207584530234997597093145485
410,1.7460126449394805990651215272270
411,1.7465033346923021063063952071913
412,1.7469928335405091592729218258095
413,1.7474811472708124865038610658893
414,1.7479682816280216076626410689822
415,1.7484542423154511686800483042082
416,1.7489390349953208413479989375234
417,1.7494226652891516359008651805493
418,1.7499051387781557898710328026972
419,1.7503864610036245117827957160148
420,1.7508666374673085616589667340708
421,1.7513456736317956205784219765373
422,1.7518235749208837309415883254210
423,1.7523003467199486436412498901121
424,1.7527759943763086859191355310531
425,1.7532505231995835293274194758194
426,1.7537239384620504646941171700281
427,1.7541962453989956687827529150262
428,1.7546674492090604763936541394558
429,1.7551375550545865703589868907354
430,1.7556065680619529515982356824613
431,1.7560744933219121929521689844283
432,1.7565413358899231263768943632069
433,1.7570071007864753014584668290195
434,1.7574717929974163132541180432358
435,1.7579354174742698232009364066356
436,1.7583979791345521741520802120136
437,1.7588594828620857609811754686140
438,1.7593199335073081388885676738755
439,1.7597793358875775507884430033139
440,1.7602376947874759450615005509456
441,1.7606950149591066436025009953119
442,1.7611513011223902238849303300229
443,1.7616065579653582628140037393992
444,1.7620607901444395618184448993700
445,1.7625140022847481839198244291003
446,1.7629661989803643272086677473338
447,1.7634173847946152039783977519831
448,1.7638675642603491438038618847849
449,1.7643167418802107611519232959540
450,1.7647649221269093400536758339665
451,1.7652121094434879390192067967165
452,1.7656583082435860576344826242275
453,1.7661035229117016080017792554066
454,1.7665477578034485800662423984515
455,1.7669910172458140247948691163460
456,1.7674333055374096523036070629102
457,1.7678746269487227407375406952853
458,1.7683149857223627518993674994982
459,1.7687543860733061676539018395931
460,1.7691928321891391895540225847724
461,1.7696303282302961515194225843206
462,1.7700668783302968587242357527204
463,1.7705024865959814565757679717684
464,1.7709371571077409907996959704194
465,1.7713708939197476274832827208594
466,1.7718037010601816638875046259704
467,1.7722355825314546106629447043324
468,1.7726665423104333612307269820977
469,1.7730965843486579251489406874656
470,1.7735257125725602501282363304460
471,1.7739539308836783999326999605975
472,1.7743812431588703859078138629591
473,1.7748076532505230031694737196948
474,1.7752331649867631755827275144059
475,1.7756577821716607324247003062629
476,1.7760815085854351306743920240344
477,1.7765043479846564560708309865988
478,1.7769263041024453790735246774616
479,1.7773473806486709552543952978410
480,1.7777675813101466648577933655516
481,1.7781869097508232425525407919252
482,1.7786053696119818663229649722012
483,1.7790229645124230856519089767141
484,1.7794396980486543089145435837748
485,1.7798555737950773270236426915341
486,1.7802705953041704582859524890623
487,1.7806847661066721634249180454248
488,1.7810980897117607274272745844887
489,1.7815105696072332364933340624433
490,1.7819222092596817133128734612837
491,1.7823330121146685450518303293766
492,1.7827429815968997923397304540647
493,1.7831521211103963543725242038723
494,1.7835604340386640842763687524848
495,1.7839679237448610473402237724209
496,1.7843745935719651666494987520221
497,1.7847804468429379417552684946708
498,1.7851854868608881857507802877799
499,1.7855897169092332781948984769723
500,1.785993140251860064475447930183
501,1.786395760133281147749410470876
502,1.786797579778794028738505525022
503,1.787198602394634561606455008519
504,1.787598831168132569857519441768
505,1.787998269267862469826832542594
506,1.788396919843794631953805272124
507,1.788794786027445327975107027369
508,1.789191870932024904105802593329
509,1.789588177652582411211320449792
510,1.789983709266152745320716630046
511,1.790378468831899529678806722881
512,1.790772459391257638655019358479
513,1.791165683968073979373695076942
514,1.791558145568747207667879380208
515,1.791949847182366752794729489546
516,1.792340791780849361452631925119
517,1.792730982319074236047668681694
518,1.793120421735018552812653153612
519,1.793509112949890141947099219263
520,1.793897058868260187014646229784
521,1.794284262378192739069060340511
522,1.794670726351375321958237188183
523,1.795056453643247066221771466193
