Eigenstate,Potential Energy
1,0.500000001243530668958742728033445472
2,0.64623094576851596485673303329681353
3,0.73633763355046952897860428292226205
4,0.79966532748533998887197895396417997
5,0.8480466613342778660503091035082527
6,0.8870661300380199633299521065481801
7,0.9197210151261424725388090373602324
8,0.9477841030282983378436568529271809
9,0.9723838927861937407872837617974398
10,0.9942806385757167832206384341639373
11,1.0140099105614310547543266714583075
12,1.0319628040699033382723531944203287
13,1.0484334491884936208527479933399853
14,1.0636485436222089219762326855534829
15,1.0777864685083086150548055293346056
16,1.090990093287016495126276092481926
17,1.103375609163201780618091236183372
18,1.115038780112700068373053848201122
19,1.126059465986377675438772030808443
20,1.136504960144132306454298456094431
21,1.146432495536639573378770160639804
22,1.155891155864132450151533471389470
23,1.164923353512958414456757695669841
24,1.173565986956029392460035886045650
25,1.181851357548772694639296117068075
26,1.189807903336741086864954495112437
27,1.197460792018209444769847988939761
28,1.204832404303234429798498606203839
29,1.211942731115625665237313641245525
30,1.218809702434789224017249035454562
31,1.225449461428465670880840083274960
32,1.231876594449485267022389551822758
33,1.238104325160015104964983214398753
34,1.244144679296226648660564078591899
35,1.250008625247117068362907792751837
36,1.255706194587738866525755764602982
37,1.261246585903007731379831187031487
38,1.266638254607839803321578146318814
39,1.271888990971520883380667416435206
40,1.277005988158389324666269242460643
41,1.281995901780164070316977864411026
42,1.286864902200256697216581570137273
43,1.291618720623919977759963607221529
44,1.296262689839991454933321390524416
45,1.300801780342420955890504359021543
46,1.305240632446634685874110412287611
47,1.309583584922311931533447119812974
48,1.313834700586564038206846112469908
49,1.317997789236842781784256678914745
50,1.32207642824878254221600982966212
51,1.32607398111871372349482230596106
52,1.32999361419223965097770198163600
53,1.33383831178781905881212705511649
54,1.33761088989673514929865271266556
55,1.34131400861735671410777116970168
56,1.34495018346152223781655841153337
57,1.34852179565367893983985122344123
58,1.35203110152861152533727155760808
59,1.35548024112084146923962202106336
60,1.35887124602775315074652465269858
61,1.36220604661893892908955237587164
62,1.36548647865595424724970468561573
63,1.36871428937943196234889966072233
64,1.37189114311419262261911009129724
65,1.37501862643745257204203694742751
66,1.37809825295038442589872786695749
67,1.38113146768902217040825145868409
68,1.38411965120674698013921452933878
69,1.38706412335727717752618360225256
70,1.38996614680415749197265785540634
71,1.39282693028014407379562829016668
72,1.39564763161758347741248339157381
73,1.39842936056883082339517950912620
74,1.40117318143393350212515071394596
75,1.40388011551117568242707245773581
76,1.40655114338462933361351240285410
77,1.40918720706155507284357574830310
78,1.41178921197133035348098905284847
79,1.41435802883653569218462648620029
80,1.41689449542589150894230306377196
81,1.41939941819788881500269332936388
82,1.42187357384319553540429294463140
83,1.42431771073323152140853505881937
84,1.42673255028168101892476863983620
85,1.42911878822515208544850153556752
86,1.43147709582867658533937001270684
87,1.43380812102128692530915242403029
88,1.43611248946648231717517134821599
89,1.43839080557201385585342159188177
90,1.44064365344307448702665035363385
91,1.44287159778265849020300052731626
92,1.44507518474256680882874097597113
93,1.44725494272827230766855680894588
94,1.44941138316061611273596505666505
95,1.45154500119708503895822238444395
96,1.45365627641521829276690876705118
97,1.45574567346050729901166710806405
98,1.45781364266097963177287741668919
99,1.45986062061050456116960239586449
100,1.46188703072271139273662478484266
101,1.46389328375728247691918980454535
102,1.46587977832025719686562166295246
103,1.46784690133987533467733635459800
104,1.46979502851938095743997440569222
105,1.47172452476811489670298877207797
106,1.47363574461213313725075885351177
107,1.47552903258551035575477915649156
108,1.47740472360340861736353250251625
109,1.47926314331792265208893043858286
110,1.48110460845765072043281239281370
111,1.48292942715187422454231041435679
112,1.48473789924017979600520740172837
113,1.48653031656830206444954293335115
114,1.48830696327091656262682514542147
115,1.49006811604207178489681230927412
116,1.49181404439390109457274028549431
117,1.49354501090422347328939585358013
118,1.49526127145360108569128851809397
119,1.49696307545238793079656929376198
120,1.49865066605827802155625802158191
121,1.50032428038482327987218072289583
122,1.50198414970137243487435556739128
123,1.50363049962485003368141442457652
124,1.50526355030377700913261588025955
125,1.50688351659490469861259808196361
126,1.50849060823281902744502369102968
127,1.51008502999285101003309951487101
128,1.51166698184760715318361334263844
129,1.51323665911742129228615047658226
130,1.51479425261501102961275206649093
131,1.51633994878460656147590763334289
132,1.51787392983580472650947464785128
133,1.51939637387238934969589709290308
134,1.52090745501634770610674904410226
135,1.52240734352729484658566154881779
136,1.52389620591751386819342906337477
137,1.52537420506280693399733233032854
138,1.52684150030933826604828707089593
139,1.52829824757664826263323658256359
140,1.52974459945700247983659863170172
141,1.53118070531123469688257113253455
142,1.53260671136123525054066838027286
143,1.53402276077922721497720243581226
144,1.53542899377396586751366566102374
145,1.53682554767399273920438292228319
146,1.53821255700806772940999930894665
147,1.53959015358289461237296643152525
148,1.54095846655825636074418101293286
149,1.54231762251966324119485415688280
150,1.54366774554861853887644805314776
151,1.54500895729059910645045932687036
152,1.54634137702084238778691371440758
153,1.54766512170803029082649728065494
154,1.54898030607595531200482412089116
155,1.55028704266324873472212369830066
156,1.55158544188125044327949826199442
157,1.55287561207009316807029954268036
158,1.55415765955307484959129120938115
159,1.5554316886893847701342778250729
160,1.5566978019252518804034822129219
161,1.5579560998435760278102580257600
162,1.5592066812121038871994640045276
163,1.5604496430302069244751147882617
164,1.5616850805743186536734410120390
165,1.5629130874420825682484770180899
166,1.5641337555952642100034257282766
167,1.5653471754014777345824659785528
168,1.5665534356747729800960111437111
169,1.5677526237151316229878081443021
170,1.5689448253469159050129701131306
171,1.5701301249563141006867943601125
172,1.5713086055278248176541671279390
173,1.5724803486798200269745758197855
174,1.5736454346992274499244008389004
175,1.5748039425753713788271478759827
176,1.5759559500330070630663778938619
177,1.5771015335645877027039581989215
178,1.5782407684617993697190544085946
179,1.5793737288463968802153283223071
180,1.5805004877003785867851100977226
181,1.5816211168955302408228394228703
182,1.5827356872223736371796310066202
183,1.5838442684185516634916965427781
184,1.5849469291966831689275183069531
185,1.5860437372717192816972780024757
186,1.5871347593878326654085399545616
187,1.5882200613448747934581258705951
188,1.5892997080244287757785561565299
189,1.5903737634154944543993030739963
190,1.5914422906398353657656580616326
191,1.5925053519770217821045259225570
192,1.5935630088892023355807211605955
193,1.5946153220456398800388174851225
194,1.5956623513470436185225053641878
195,1.5967041559497355702731139463801
196,1.5977407942896867937322020272062
197,1.5987723241064611907532563069061
198,1.5997988024671063858144374904844
199,1.6008202857900319003526161322046
200,1.6018368298689181934594599483122
201,1.6028484898966996316048316871432
202,1.6038553204896695374496620291712
203,1.6048573757117556913855204152834
204,1.6058547090990188499766603030587
205,1.6068473736844287424584485913712
206,1.6078354220229789578645994743686
207,1.6088189062171992758864111474408
208,1.6097978779431370688538403037411
209,1.6107723884768761317238955134371
210,1.6117424887216727987303888706852
211,1.6127082292357914219265268454376
212,1.6136696602611311842798764700561
213,1.6146268317527381573716395127651
214,1.6155797934093157477797023068196
215,1.6165285947048404972871571158379
216,1.6174732849214156146231391088554
217,1.6184139131834964948705746461805
218,1.6193505284936407346623633667207
219,1.6202831797699442329347891782778
220,1.6212119158853507287043840807469
221,1.6221367857090260273756719280334
222,1.6230578381500282151510371131667
223,1.6239751222035048343788722858054
224,1.6248886869996957137974087615261
225,1.6257985818560371937818898676088
226,1.6267048563326978201661428381451
227,1.6276075602919183969648900340783
228,1.6285067439615651714237160311478
229,1.6294024580033587416310098092389
230,1.6302947535862939243681444309559
231,1.6311836824658257080489052862041
232,1.6320692970694767026817876187351
233,1.6329516505895880520519953571657
234,1.6338307970840509059759880982866
235,1.6347067915859405362042900823746
236,1.6355796902231160238232977012779
237,1.6364495503489858578732899521670
238,1.6373164306858039233974237019980
239,1.6381803914820566545101198100800
240,1.6390414946857228426100473015410
241,1.6398998041354509497219551307738
242,1.6407553857720028700773448851867
243,1.6416083078726726211855017062480
244,1.6424586413118077319273096706916
245,1.6433064598510614178328045227329
246,1.6441518404635910645038387305337
247,1.6449948636971176091133101679918
248,1.6458356140816015913169509278863
249,1.6466741805882784463492669720887
250,1.6475106571480119120787460776300
251,1.6483451432383607735839540558783
252,1.6491777445505144870590712218497
253,1.6500085737493918502025419085824
254,1.6508377513428035483091992516400
255,1.6516654066787930081795879987597
256,1.6524916790942297462339286599710
257,1.6533167192426571252276115077105
258,1.6541406906355320953119670936186
259,1.6549637714387252791455620154089
260,1.6557861565759037047878101408137
261,1.6566080602028405855018656761681
262,1.6574297186326233647239307281115
263,1.6582513938122884760020881515536
264,1.6590733774781876218540688254281
265,1.6598959961525316451597910987131
266,1.6607196171901326885129327393124
267,1.6615446561466764940796557252612
268,1.6623715858240977440610230487198
269,1.6632009474638224531587949353485
270,1.6640333647180483797120969367424
271,1.6648695612527872399546341495342
272,1.6657103831543277310644881066324
273,1.6665568277700961203837997224145
274,1.6674100812897320097388775000540
275,1.6682715683824040495322195710557
276,1.6691430187500017125444111009934
277,1.6700265578689979566789500126495
278,1.6709248330636282643375403960771
279,1.6718411924393241266398116693889
280,1.6727799450918602714108680119607
281,1.6737467502667735199999648771661
282,1.6747492187046678721530907844668
283,1.6757978784391596246193061955554
284,1.6769077995097011109831795593350
285,1.6781014867088670022177038212257
286,1.6794144101629676798325702993513
287,1.6809066013349080213845187676805
288,1.6826902020789038060792890797285
289,1.6850078486583548383631037263822
290,1.6885304725040699382146017536360
291,1.6963696365907719890048687015749
