Eigenstate,Potential Energy
1,0.500000000030152908073343195277194955
2,0.64623093784793701530631904460037171
3,0.73633761028312504219188392019596584
4,0.79966527901845672977178707965715526
5,0.8480465773716349683463351915901035
6,0.8870660000980728011360493104447177
7,0.9197208286362906589902841026745935
8,0.9477838493634230061895065135157473
9,0.9723835612858625436101734469007854
10,0.9942802185522557280097936295983632
11,1.0140093913036943483061722528696733
12,1.0319621748448484112947867092934405
13,1.0484326992415586226289106478582503
14,1.0636476621769983077089778568991255
15,1.0777854447658585330617769690121412
16,1.090988916424793386854204963144772
17,1.103374268333924553633243003715756
18,1.115037264443041025107891366341467
19,1.126057764575576955802667957002530
20,1.136503062062548318957231657160796
21,1.146430389824250267848116975418954
22,1.155888831528997422291266208966151
23,1.164920799529648650878393515351010
24,1.173563192264029335169999643400615
25,1.181848311050857848443322128357581
26,1.189804593897333379050349213207251
27,1.197457208461711827102469578675945
28,1.204828535412345693950720808253987
29,1.211938565629636062327128544598211
30,1.218805229047857195637840296945012
31,1.225444668787875784762020383029384
32,1.231871471153887285945345446452698
33,1.238098859757643989223879448718601
34,1.244138860283103190650886445480895
35,1.250002441065228775906264943581251
36,1.255699633623200644335292475298836
37,1.261239636484201853968281656258093
38,1.266630905003534624954300351810200
39,1.271881229388967689345807269388197
40,1.276997802741396691645515885869203
41,1.281987280607149070823245121728512
42,1.286855833282272253020520077454918
43,1.291609191902657639257848416112158
44,1.296252689185758856967363219286188
45,1.300791295552093175187045676672833
46,1.305229651241578700668552623776766
47,1.309572094946283359827394734934625
48,1.313822689403575307223245612262559
49,1.317985244329001857367831727035089
50,1.32206333701410132300991868080431
51,1.32606033086888518057898603091648
52,1.32997939215038276917363063666791
53,1.33382350508619061093804931124844
54,1.33759548557440730921664060103110
55,1.34129799361785948836731861202765
56,1.34493354463044966899105240546005
57,1.34850451973625800721788738768434
58,1.35201317516723264040035167739275
59,1.35546165085254943429124383037733
60,1.35885197828169741908175185674238
61,1.36218608771378197417222743182392
62,1.36546581479723681643535373634243
63,1.36869290665689395771159577118678
64,1.37186902749904831735538915914317
65,1.37499576377961883567828358215444
66,1.37807462897566059508159380912388
67,1.38110706799622016434576722960599
68,1.38409446126477022073544534309086
69,1.38703812850214683385273838811124
70,1.38993933223598452690741305219081
71,1.39279928106004552734188315848241
72,1.39561913266454137636910999597390
73,1.39839999665649206057833644957466
74,1.40114293718734898021080671446385
75,1.40384897540347696760481940706922
76,1.40651909173364101255421409880379
77,1.40915422802634095290643091679195
78,1.41175528954867159054608444540625
79,1.41432314685733887291782970603724
80,1.41685863755152465459783094687786
81,1.41936256791644321194662751692667
82,1.42183571446567123332263830071983
83,1.42427882538964427354589500868665
84,1.42669262191708836958550936118038
85,1.42907779959559623827064726982042
86,1.43143502949704161143547312190586
87,1.43376495935306779310870156610485
88,1.43606821462546314562260711975975
89,1.43834539951585270935490867067775
90,1.44059709791879194408760754296691
91,1.44282387432202712791621756689711
92,1.44502627465739865210361973806395
93,1.44720482710560119521719997213745
94,1.44936004285777183114977342777983
95,1.45149241683665597159581063437456
96,1.45360242837989922143801179206258
97,1.45569054188782888338973336430839
98,1.45775720743791597394395121724895
99,1.45980286136795514049044354908835
100,1.46182792682985352904667079678565
101,1.46383281431579034789346093863756
102,1.46581792215838329768546547385375
103,1.46778363700639012499342781226445
104,1.46973033427736629152505824303695
105,1.47165837858860667751416749518624
106,1.47356812416760847352421255869882
107,1.47545991524321433295686765891826
108,1.47733408641851561800188115273466
109,1.47919096302652697823035169157941
110,1.48103086146958108090843773725663
111,1.48285408954332645091002892438837
112,1.48466094674616194447345006768525
113,1.48645172457488584525313422444739
114,1.48822670680728881336093548667692
115,1.48998616977237946958913263283157
116,1.49173038260888306535898169112410
117,1.49345960751262197593188283488000
118,1.49517409997334572331471268789589
119,1.49687410900154452157451810719437
120,1.49855987734575449504283314975847
121,1.50023164170082445264564239321327
122,1.50188963290759518846222687577113
123,1.50353407614441008568413638932903
124,1.50516519111085812133686822458188
125,1.50678319220412080286377304695686
126,1.50838828868827937037407931414838
127,1.50998068485691802047057215423352
128,1.51156058018933632038264011350310
129,1.51312816950067190789217862770983
130,1.51468364308621619067266197485423
131,1.51622718686019035454357669054616
132,1.51775898248923401294177323519009
133,1.51927920752084704832698579490342
134,1.52078803550701392028035552668215
135,1.52228563612322160671201943078165
136,1.52377217528307865706349055760763
137,1.52524781524872952844715485431594
138,1.52671271473724476367441324491995
139,1.52816702902316546421849635268094
140,1.52961091003736506518969044118322
141,1.53104450646238686191073634291078
142,1.53246796382440766441320006825016
143,1.53388142458196930600611387865400
144,1.53528502821161255243150918016209
145,1.53667891129054377036203553544697
146,1.53806320757645684524522846288182
147,1.53943804808462463553284026829940
148,1.54080356116237529230033451956697
149,1.54215987256105524518740574526108
150,1.54350710550558249551318521110161
151,1.54484538076168613079602385567899
152,1.54617481670092235982309021233917
153,1.54749552936355601793837967305255
154,1.54880763251939144176570095018461
155,1.55011123772663094933350957040826
156,1.55140645438883879193839450909926
157,1.55269338981008162432385121027314
158,1.55397214924831731124869310472768
159,1.5552428359670957432513837820951
160,1.5565055512856379991208282477515
161,1.5577603946273523511654631859855
162,1.5590074635668465743529604566878
163,1.5602468538754914125905745286870
164,1.5614786595655898387121557259379
165,1.5627029729332007083603072028002
166,1.5639198845996673233232023724477
167,1.5651294835518981366164943385165
168,1.5663318571814422881947077354576
169,1.5675270913224050333534573889515
170,1.5687152702882428069093309692264
171,1.5698964769074781175887849675326
172,1.5710707925583721392550835284416
173,1.5722382972025904012747942819749
174,1.5733990694178974215086911175557
175,1.5745531864299142668309837607330
176,1.5757007241429687475004777741415
177,1.5768417571700715058919404606828
178,1.5779763588620471539547610207194
179,1.5791046013358469043154157644677
180,1.5802265555020736413935210711572
181,1.5813422910917420810883536776591
182,1.5824518766823017143918828432586
183,1.5835553797229455841730861645540
184,1.5846528665592291366400709158018
185,1.5857444024570209555741009172132
186,1.5868300516258063479251243820746
187,1.5879098772413675812368846311581
188,1.5889839414678562091861358075546
189,1.5900523054792812162939636564820
190,1.5911150294804286328538710638547
191,1.5921721727272318425952244710256
192,1.5932237935466089652510378487593
193,1.5942699493557856178434786249620
194,1.5953106966811163954346142128632
195,1.5963460911764230036652879320678
196,1.5973761876408627349458303802732
197,1.5984010400363416635828512948407
198,1.5994207015044867217841231037445
199,1.6004352243831894903581287503373
200,1.6014446602227356442701696120132
201,1.6024490598015310294347994579737
202,1.6034484731414377468570978819717
203,1.6044429495227308988055505273073
204,1.6054325374986876118793133152307
205,1.6064172849098183022826855541610
206,1.6073972388977532020050028020809
207,1.6083724459187900165322750016957
208,1.6093429517571169354963902124595
209,1.6103088015377167390904904507226
210,1.6112700397389634958507002478213
211,1.6122267102049192107615805259485
212,1.6131788561573406508086406967879
213,1.6141265202074007258669451538332
214,1.6150697443671394006104112576811
215,1.6160085700606433436676279798316
216,1.6169430381349682684759546053240
217,1.6178731888708079248702949213842
218,1.6187990619929187138507740675620
219,1.6197206966803031984592853298616
220,1.6206381315761650188866877657079
221,1.6215514047976331140944576742704
222,1.6224605539452724473100242029505
223,1.6233656161123747962207172130457
224,1.6242666278940446671581590603239
225,1.6251636253960828898092326284579
226,1.6260566442436714303878188105737
227,1.6269457195898680661072591984787
228,1.6278308861239127311462246745304
229,1.6287121780793526862445519279585
230,1.6295896292419911981588965740271
231,1.6304632729576615182338081425425
232,1.6313331421398365689943104576453
233,1.6321992692770693242494324661493
234,1.6330616864402800287575835785766
235,1.6339204252898834285385302327253
236,1.6347755170827657105849117128621
237,1.6356269926791147720847776150924
238,1.6364748825491055501500473120597
239,1.6373192167794458476147921270237
240,1.6381600250797848083033448865882
241,1.6389973367889883230996239213527
242,1.6398311808812842227500076189264
243,1.6406615859722812881549646622658
244,1.6414885803248637663669126760671
245,1.6423121918549657653864013483702
246,1.6431324481372280463052217263182
247,1.6439493764105385945626042092461
248,1.6447630035834645508493480406383
249,1.6455733562395704701556782601906
250,1.6463804606426332930641595275465
251,1.6471843427417519286945831673984
252,1.6479850281763542471961932255754
253,1.6487825422811065533855424531124
254,1.6495769100907251977824194018495
255,1.6503681563446942044682910850242
256,1.6511563054918890005296633864126
257,1.6519413816951126378253461857938
258,1.6527234088355409511321314262372
259,1.6535024105170834555142333796238
260,1.6542784100706603686162387631768
261,1.6550514305583960709321955287253
262,1.6558214947777337287774648179158
263,1.6565886252654699298459918182390
264,1.6573528443017147815056089896478
265,1.6581141739137759963592974706712
266,1.6588726358799691321043375948429
267,1.6596282517333571982218075589686
268,1.6603810427654196624949852658334
269,1.6611310300296551265557411180371
270,1.6618782343451133938831277752368
271,1.6626226762998662134903083762119
272,1.6633643762544106781435985978646
273,1.6641033543450127195074761809966
274,1.6648396304869879085128435935501
275,1.6655732243779234358070150351204
276,1.6663041555008395499174817954447
277,1.6670324431272979364221912203879
278,1.6677581063204487920534067704635
279,1.6684811639380280961826698126547
280,1.6692016346352971725356912208769
281,1.6699195368679324299434027176157
282,1.6706348888948627783804518964948
283,1.6713477087810579327204981948088
284,1.6720580144002647607264424590773
285,1.6727658234376984825196465860241
286,1.6734711533926847462559906649654
287,1.6741740215812576392832960837252
288,1.6748744451387100365391866114070
289,1.6755724410221009342365243929410
290,1.6762680260127205013469876537381
291,1.6769612167185106898063135758971
292,1.6776520295764442883306616482468
293,1.6783404808548663256018560785888
294,1.6790265866557928597197413176964
295,1.6797103629171692410489984644143
296,1.6803918254150954340042588666941
297,1.6810709897660083294811564307617
298,1.6817478714288303646679770256797
299,1.6824224857070812530763571738022
300,1.6830948477509545753776593648849
301,1.6837649725593596424632202866618
302,1.6844328749819307236421223413835
303,1.6850985697210008130859013484558
304,1.6857620713335435120300906223192
305,1.6864233942330844552401879146540
306,1.6870825526915815449420034107627
307,1.6877395608412711741708806106221
308,1.6883944326764879179688179475556
309,1.6890471820554537816959710549185
310,1.6896978227020373416032522652912
311,1.6903463682074863725700777975606
312,1.6909928320321314761406905220238
313,1.6916372275070621016082415615477
314,1.6922795678357767644217763039105
315,1.6929198660958067815597116542688
316,1.6935581352403148995134184111996
317,1.6941943880996663534861669564892
318,1.6948286373829777090544513839948
319,1.6954608956796406278541966252277
320,1.6960911754608205585518656511836
321,1.6967194890809342720356248731460
322,1.6973458487791023552593199393161
323,1.6979702666805801777793152659040
324,1.6985927547981663081257442528196
325,1.6992133250335901419903583389955
326,1.6998319891788769794588748138293
327,1.7004487589176933720452428308409
328,1.7010636458266699287237477786929
329,1.7016766613767065558192799383941
330,1.7022878169342565624232475551863
331,1.7028971237625910699132174592426
332,1.7035045930230447868020006889576
333,1.7041102357762435274551224525618
334,1.7047140629833116586846745214310
335,1.7053160855070637891352603534291
336,1.7059163141131767594982882872058
337,1.7065147594713448057839956263606
338,1.7071114321564189544875628102625
339,1.7077063426495267141397569809468
340,1.7082995013391781545670588521316
341,1.7088909185223540874227443049257
342,1.7094806044055788451221302724867
343,1.7100685691059772959556044219169
344,1.7106548226523160890706482293728
345,1.7112393749860309486412593032539
346,1.7118222359622374920038663257903
347,1.7124034153507291371028867013584
348,1.7129829228369589109540429258415
349,1.7135607680230087040348163268402
350,1.7141369604285435129270913897523
351,1.7147115094917527588004494557658
352,1.7152844245702783640862608805727
353,1.7158557149421288717061246474320
354,1.7164253898065810213164182725660
355,1.7169934582850691478380572818251
356,1.7175599294220606120465884186933
357,1.7181248121859205022531577926703
358,1.7186881154697648510700110767042
359,1.7192498480922981123924666664723
360,1.7198100187986438365095701044723
361,1.7203686362611602882059091630884
362,1.7209257090802474894488376230564
363,1.7214812457851402822683414247061
364,1.7220352548346924358179082176202
365,1.7225877446181500339789001563570
366,1.7231387234559130211735963722665
367,1.7236881996002877983922101174219
368,1.7242361812362276581603568321034
369,1.7247826764820656909876854403805
370,1.7253276933902358764707041689436
371,1.7258712399479852123557595216212
372,1.7264133240780758380392641666458
373,1.7269539536394771192183629114765
374,1.7274931364280520021697421029889
375,1.7280308801772283292244879172467
376,1.7285671925586665716532599542344
377,1.7291020811829157691710339210217
378,1.7296355536000608434713609803288
379,1.7301676173003631255910324451272
380,1.7306982797148908538686477673252
381,1.7312275482161425179319640909755
382,1.7317554301186601668835054901462
383,1.7322819326796373563442472704736
384,1.7328070630995166980562810978935
385,1.7333308285225806332975693125334
386,1.7338532360375360887601654783258
387,1.7343742926780887642271940124964
388,1.7348940054235109888440651352593
389,1.7354123811992038206670585469698
390,1.7359294268772505785921326017082
391,1.7364451492769621236005112347468
392,1.7369595551654174976937675950172
393,1.7374726512579973940003481055265
394,1.7379844442189090391452559490645
395,1.7384949406617053447506760051033
396,1.7390041471497979789295186260839
397,1.7395120701969639876746218408244
398,1.7400187162678459742720984678459
399,1.7405240917784444025249475018112
400,1.7410282030966063237383442702072
401,1.7415310565425065763807488792728
402,1.7420326583891222036320132850223
403,1.7425330148627029095522352730894
404,1.7430321321432354469554606629480
405,1.7435300163648994024281849194654
406,1.7440266736165204875216218936781
407,1.7445221099420184528322468566011
408,1.7450163313408471281593968574416
409,1.7455093437684294498119417259923
410,1.7460011531365899895366538934046
411,1.7464917653139792450818191763616
412,1.7469811861264932749801807085714
413,1.7474694213576897566058661166996
414,1.7479564767491968913465926229371
415,1.7484423580011194408486900841618
416,1.7489270707724383239640702161106
417,1.7494106206814066228811541516944
418,1.7498930133059391616727683718429
419,1.7503742541839999357685341112691
420,1.7508543488139823742695989223749
421,1.7513333026550863872866611087281
422,1.7518111211276914798996567138840
423,1.7522878096137237688762176600510
424,1.7527633734570205158702210897644
425,1.7532378179636885564572510198178
426,1.7537111484024602318432733115552
427,1.7541833700050443078733780453365
428,1.7546544879664718950247491532538
429,1.7551245074454412817673037026381
430,1.7555934335646545433947641828741
431,1.7560612714111534299757321454311
432,1.7565280260366516829356852540799
433,1.7569937024578591181619806784299
434,1.7574583056568085735652010780361
435,1.7579218405811735447660891351341
436,1.7583843121445844098943928400860
437,1.7588457252269414048633075180280
438,1.7593060846747233311797718778356
439,1.7597653953012926775889434386102
440,1.7602236618871982267612222200489
441,1.7606808891804723068691186708814
442,1.7611370818969262516942770784463
443,1.7615922447204437169545861322354
444,1.7620463823032664722154066876406
445,1.7624994992662819990381823522457
446,1.7629516001993039197088417827485
447,1.7634026896613524257075614939197
448,1.7638527721809279241154943449450
449,1.7643018522562857424547805967356
450,1.7647499343557040443973126952196
451,1.7651970229177524594279390907392
452,1.7656431223515542678039833024264
453,1.7660882370370478838745232592409
454,1.7665323713252440267011474540646
455,1.7669755295384822018448390435594
456,1.7674177159706817913095705684570
457,1.7678589348875924473422601623038
458,1.7682991905270401859774629475990
459,1.7687384870991716942432140255972
460,1.7691768287866964933630603407517
461,1.7696142197451248076707518798387
462,1.7700506641030043522797908603125
463,1.7704861659621546432707824798872
464,1.7709207293978969912936745791645
465,1.7713543584592841473124763594582
466,1.7717870571693267311808784646097
467,1.7722188295252157235566946530036
468,1.7726496794985460367874343537077
469,1.7730796110355336414568569146631
470,1.7735086280572337731222210567579
471,1.7739367344597544863437444169571
472,1.7743639341144698536079446721684
473,1.7747902308682281600393169801059
474,1.7752156285435625978859612408556
475,1.7756401309388933835254312763990
476,1.7760637418287338107874382420275
477,1.7764864649638905735821008749004
478,1.7769083040716630338119883662394
479,1.7773292628560403239444106763592
480,1.7777493449978966788145531708036
481,1.7781685541551835475256574645628
482,1.7785868939631220542233427053735
483,1.7790043680343911877308767787596
484,1.7794209799593145397897061322435
485,1.7798367333060470687710528323056
486,1.7802516316207564736398363496033
487,1.7806656784278060269431877638470
488,1.7810788772299334632962876738774
489,1.7814912315084291514546469520553
490,1.7819027447233114130039030826157
491,1.7823134203135011218543054419475
492,1.7827232616969941726303847453720
493,1.7831322722710317928655729549994
494,1.7835404554122697929416706104612
495,1.7839478144769449461659059589817
496,1.7843543528010417433041155783043
497,1.7847600737004552069837707233692
498,1.7851649804711537111142103796151
499,1.7855690763893393025338332710844
500,1.785972364711607655246451677752
501,1.786374848675103403143882607743
502,1.786776531497678306251394904634
503,1.787177416378043718476000391722
504,1.787577506495925200544187914787
505,1.787976805012212125442947332756
506,1.788375315069108006294606442669
507,1.788773039790279394532998350408
508,1.789169982281002988178103177728
509,1.789566145628309180934109100361
510,1.789961532901128105178005019810
511,1.790356147150431399746177894062
512,1.790749991409373602543667922867
513,1.791143068693431783539894114276
514,1.791535382000544094444925066729
515,1.791926934311247609193198569257
516,1.792317728588813665454130945987
517,1.792707767779381781793159290926
518,1.793097054812093935752784866840
519,1.793485592599225984683790792135
520,1.793873384036319086218175011967
521,1.794260432002307913499818458681
522,1.794646739359649941263655147858
523,1.795032308954452239811748379361
