Eigenstate,Potential Energy
1,0.500000000035691358823390284676944634
2,0.64623093788408916548638577117813021
3,0.73633761038931920295196414749475639
4,0.79966527923964743113661357226638362
5,0.8480465777547833881079349749881352
6,0.8870660006909625389951032021489548
7,0.9197208294870914162734796164853838
8,0.9477838505205086329915574049678093
9,0.9723835627977264404014257709840945
10,0.9942802204674679172982420294798168
11,1.0140093936708781626921972189145688
12,1.0319621777126671777757343369847287
13,1.0484327026587077889337022103921238
14,1.0636476661922007005646490532729510
15,1.0777854494278615059320368126677374
16,1.090988921782367154590466314883958
17,1.103374274435861299239102682355031
18,1.115037271338154524346875295037644
19,1.126057772312702558572505116361512
20,1.136503070690543182388565987921895
21,1.146430399391993770841737394583856
22,1.155888842085391713371863453131946
23,1.164920811123619295732422869901660
24,1.173563204944526039922227844911752
25,1.181848324866855241335529524698680
26,1.189804608897831837778391218152190
27,1.197457224695738342313698580240961
28,1.204828552928954761733265680210584
29,1.211938584477910600218257165801331
30,1.218805249276909477929233968329692
31,1.225444690446848393813324206660562
32,1.231871494291954076922053158068249
33,1.238098884424011066213133822990834
34,1.244138886527009892522777488325891
35,1.250002468935948670609979041537107
36,1.255699663170042530571675295846291
37,1.261239667756510769379654454158612
38,1.266630938050692860131006419376964
39,1.271881264260395807076118167123132
40,1.276997839486554550938164961596681
41,1.281987319275536855315191398242501
42,1.286855873923431503450635115351505
43,1.291609234566172289743157177855267
44,1.296252733921256274864683381701295
45,1.300791342409245204361218218033833
46,1.305229700270102708020488467302339
47,1.309572146195943284961971385555041
48,1.313822742924182715159697201333134
49,1.317985300170416994214375454931656
50,1.32206339522623417454058288337930
51,1.32606039150169653366444822318069
52,1.32997945525388527602970951309374
53,1.33382357071044985616566509778119
54,1.33759555376954287961584184320442
55,1.34129806443404604551555949668146
56,1.34493361811791802458250374782418
57,1.34850459594529620116630534254785
58,1.35201325414818702171307612212191
59,1.35546173265582574472628296871479
60,1.35885206295776187960381388323871
61,1.36218617531316237422697811001925
62,1.36546590537052360606424011185197
63,1.36869300025474134253226215446216
64,1.37186912417217535643514227825290
65,1.37499586357881054233020613397004
66,1.37807473195176904061488157957702
67,1.38110717420016558480358477495672
68,1.38409457074754212665519584516620
69,1.38703824131480512308509966789165
70,1.38993944842966060053176583377109
71,1.39279940068594340871700304954527
72,1.39561925577393883335906447778058
73,1.39840012330074173099456019626152
74,1.40114306741787950051227545883825
75,1.40384910927179410489910682628194
76,1.40651922929132879994302928110867
77,1.40915436932506282822000342452402
78,1.41175543464017153851148528825278
79,1.41432329579344257080698748999943
80,1.41685879038414062140163191394866
81,1.41936272469756396112211922027798
82,1.42183587524737442916092625699678
83,1.42427899022409389120887292414719
84,1.42669279085653585886009790206707
85,1.42907797269238169108974436468935
86,1.43143520680359493321530085711531
87,1.43376514092190987795272181569660
88,1.43606840050920705544265921046031
89,1.43834558976720485696066132345046
90,1.44059729259055328029587754001077
91,1.44282407346709433273214700299813
92,1.44502647832876533002612808997075
93,1.44720503535635907472156649368358
94,1.44936025574111196840060661825925
95,1.45149263440586995844410573621490
96,1.45360265068838039775636948345226
97,1.45569076898907355380027770015128
98,1.45775743938552462899382624998741
99,1.45980309821563368233022768561371
100,1.46182816863141450166743568501050
101,1.46383306112515417197859018523081
102,1.46581817402957951013376804082151
103,1.46778389399355862317048355825284
104,1.46973059643475858230013601964824
105,1.47165864597058713114046630835974
106,1.47356839682865558242055918206190
107,1.47546019323792197544946566705626
108,1.47733436980159432708504389561098
109,1.47919125185280521540565202934300
110,1.48103115579400651516202796439908
111,1.48285438942096724288839030350295
112,1.48466125223220803591818876727982
113,1.48645203572465025375589341604657
114,1.48822702367620893249992591345954
115,1.48998649241601837450919502409749
116,1.49173071108293082385754732442744
117,1.49345994187289696511362118211696
118,1.49517444027579595187812255495732
119,1.49687445530224895779412651774763
120,1.49856022970092440051115394273312
121,1.50023200016680472183949438229359
122,1.50188999754086569419844146259603
123,1.50353444700158703053022046568636
124,1.50516556824869539504254592224408
125,1.50678357567951134587989189789253
126,1.50838867855825654352584021373951
127,1.50998108117865698085249103162087
128,1.51156098302015540354316645648006
129,1.51312857889803401637637818983331
130,1.51468405910773018899185518928594
131,1.51622760956361247064137334611963
132,1.51775941193246924622640952801914
133,1.51927964376195058434040099724571
134,1.52078847860419255207500866679010
135,1.52228608613483516300691647497910
136,1.52377263226764143725144506183073
137,1.52524827926491174452586901712797
138,1.52671318584387398917446345036051
139,1.52816750727922809020192884473119
140,1.52961139550200776339346158612102
141,1.53104499919491805510974109689942
142,1.53246846388429900407828715390593
143,1.53388193202885715733305783158944
144,1.53528554310529948681741041009267
145,1.53667943369100006540629730473686
146,1.53806373754382199235284286533062
147,1.53943858567920885519830792749882
148,1.54080410644466105715112312615133
149,1.54216042559169881086657363351076
150,1.54350766634541543948126181674291
151,1.54484594947171689913305505390567
152,1.54617539334233782211225229915234
153,1.54749611399772303031330691924803
154,1.54880822520785841820426276645392
155,1.55011183853112944128149898228073
156,1.55140706337128507634721242123938
157,1.55269400703257830018695737065588
158,1.55397277477315490472231842446093
159,1.5552434698567543214456660804486
160,1.5565061936027887926481978339841
161,1.5577610454348593855339451717587
162,1.5590081229277683102925956003780
163,1.5602475218530823954020458265441
164,1.5614793362233023567273766791462
165,1.5627036583346864606054787256078
166,1.5639205788087790964756008696341
167,1.5651301866326914913469989123767
168,1.5663325691981772549889123017204
169,1.5675278123395478179049040882051
170,1.5687160003704675051792380790722
171,1.5698972161196684406274493277260
172,1.5710715409656231478809590004734
173,1.5722390548702102507079721493401
174,1.5733998364114091160564447436706
175,1.5745539628150574247238520841668
176,1.5757015099857013759781303275997
177,1.5768425525365717866390374884392
178,1.5779771638187152389878050228968
179,1.5791054159493067224224886969624
180,1.5802273798391747152297206818978
181,1.5813431252195613550305866833611
182,1.5824527206681453932576361982055
183,1.5835562336343509829086083596209
184,1.5846537304639665410844899177831
185,1.5857452764230954944067908275505
186,1.5868309357214598759046701446693
187,1.5879107715350805738409391330117
188,1.5889848460283496687623898274938
189,1.5900532203755185898334855637957
190,1.5911159547816177414990731777527
191,1.5921731085028268229956214156394
192,1.5932247398663122228811711623469
193,1.5942709062895497923982124202745
194,1.5953116642991463384181326864740
195,1.5963470695491777682912162538314
196,1.5973771768390575784668909212945
197,1.5984020401309500621696439872598
198,1.5994217125667423980735296167014
199,1.6004362464845884537932068523649
200,1.6014456934350382443543038686990
201,1.6024501041967640220240789978401
202,1.6034495287918963736160457832077
203,1.6044440165009809799524722181203
204,1.6054336158775676523487164786123
205,1.6064183747624416114333522726594
206,1.6073983402975100270036119804177
207,1.6083735589393496895434962441509
208,1.6093440764724300348118264748982
209,1.6103099380220172643298890647360
210,1.6112711880667710573702182126210
211,1.6122278704510412334051030935781
212,1.6131800283968745921394709850265
213,1.6141277045157363090184890947020
214,1.6150709408199608618957285826893
215,1.6160097787339316950891473550876
216,1.6169442591050035752779138087922
217,1.6178744222141715982779214310702
218,1.6188003077864958191414161968510
219,1.6197219550012847785123670759708
220,1.6206394025020504333605383921021
221,1.6215526884062323943795714493840
222,1.6224618503147086674098337770903
223,1.6233669253210864597122708372694
224,1.6242679500207881103866823941248
225,1.6251649605199347014720284855553
226,1.6260579924440308876644274604506
227,1.6269470809464595874944149414555
228,1.6278322607167883461575330743921
229,1.6287135659888945221366599890210
230,1.6295910305489139838471680435909
231,1.6304646877430151055624682756125
232,1.6313345704850084715273344615998
233,1.6322007112637872737502857322102
234,1.6330631421506145495276223952561
235,1.6339218948062504297852706889929
236,1.6347770004879290969935707648885
237,1.6356284900561890727676098274312
238,1.6364763939815585661503145137383
239,1.6373207423511013181434021659812
240,1.6381615648748250958886737896569
241,1.6389988908919571178322065369225
242,1.6398327493770892658058498573047
243,1.6406631689461971147832852891956
244,1.6414901778625344685295090372348
245,1.6423138040424077742382808815687
246,1.6431340750608329347077293013748
247,1.6439510181570758998222422205118
248,1.6447646602400846178775554442359
249,1.6455750278938073152467238280976
250,1.6463821473824074884903930063250
251,1.6471860446553735083202708007063
252,1.6479867453525256333132456833285
253,1.6487842748089255049765604997743
254,1.6495786580596877804186026173284
255,1.6503699198446977820517813636310
256,1.6511580846132352490920857344806
257,1.6519431765285105815967935191985
258,1.6527252194721100210965213565996
259,1.6535042370483565706696849517658
260,1.6542802525885870401611349408986
261,1.6550532891553455296000151717293
262,1.6558233695464980755456932183499
263,1.6565905162992673102468720562550
264,1.6573547516941925837687758159797
265,1.6581160977590140736188796658885
266,1.6588745762724830489055549585937
267,1.6596302087681015015642996954978
268,1.6603830165377911776529590752150
269,1.6611330206354962779173645838843
270,1.6618802418807155510543328375190
271,1.6626247008619730629103906675218
272,1.6633664179402216204631323167674
273,1.6641054132521862929813599863743
274,1.6648417067136452386641415705943
275,1.6655753180226517116199608695983
276,1.6663062666626955268207075911287
277,1.6670345719058114663262734088841
278,1.6677602528156263807092110308436
279,1.6684833282503564881304131298697
280,1.6692038168657469639170070010924
281,1.6699217371179617094521242010482
282,1.6706371072664207966302920372953
283,1.6713499453765888003113290058514
284,1.6720602693227111752934987867827
285,1.6727680967905054850534035081204
286,1.6734734452798035069834260366109
287,1.6741763321071492734043477617349
288,1.6748767744083494501156370900844
289,1.6755747891409807005335940915321
290,1.6762703930868547679313687939755
291,1.6769636028544391167075419715671
292,1.6776544348812360175762937774991
293,1.6783429054361239824401343801522
294,1.6790290306216565858471646531144
295,1.6797128263763207601633573879980
296,1.6803943084767621500075046942307
297,1.6810734925399674576599931738780
298,1.6817503940254130961837490664150
299,1.6824250282371769530994996783663
300,1.6830974103260150152055442284396
301,1.6837675552914032659642730285034
302,1.6844354779835469483726772948310
303,1.6851011931053543664302901822437
304,1.6857647152143788027184779143210
305,1.6864260587247299806023413153629
306,1.6870852379089543342595443762372
307,1.6877422668998812684944223961677
308,1.6883971596924428867707125084305
309,1.6890499301454632767333849608814
310,1.6897005919834176883706115666863
311,1.6903491587981651997245562829727
312,1.6909956440506523832880097013475
313,1.6916400610725893658414355036148
314,1.6922824230681000860090883048237
315,1.6929227431153460691831385215025
316,1.6935610341681250954632313461881
317,1.6941973090574422992223287096310
318,1.6948315804930590515495803434611
319,1.6954638610650167671382992991846
320,1.6960941632451356368832463873353
321,1.6967224993884922051277945849895
322,1.6973488817348719059984692647579
323,1.6979733224102000728719057988179
324,1.6985958334279503981210077576180
325,1.6992164266905326051274060847449
326,1.6998351139906575697937992911485
327,1.7004519070126827123184743188639
328,1.7010668173339348484334120503972
329,1.7016798564260154749719348572105
330,1.7022910356560849214386317143479
331,1.7029003662881268061654190275882
332,1.7035078594841938582850415634115
333,1.7041135263056354840668356632271
334,1.7047173777143052616281857614745
335,1.7053194245737526789439000613901
336,1.7059196776503951731951287508509
337,1.7065181476146733436936485011394
338,1.7071148450421903972239281495840
339,1.7077097804148318902995089054170
340,1.7083029641218718596652680446517
341,1.7088944064610610546128829651443
342,1.7094841176396997682499181048424
343,1.7100721077756949055020234622624
344,1.7106583868986012815467264475455
345,1.7112429649506489700035073042502
346,1.7118258517877541756662326265266
347,1.7124070571805171971280758406015
348,1.7129865908152042910143709563108
349,1.7135644622947169827390514243694
350,1.7141406811395463661179743352341
351,1.7147152567887144794342723237433
352,1.7152881986007024403134581537564
353,1.7158595158543646237794289892375
354,1.7164292177498302979608604989572
355,1.7169973134093930827243467305283
356,1.7175638118783864410179422117436
357,1.7181287221260484419632445104021
358,1.7186920530463750396975543503477
359,1.7192538134589576131066867781172
360,1.7198140121098137043685780554194
361,1.7203726576722027011788114076831
362,1.7209297587474329442605552439858
363,1.7214853238656548557751105492276
364,1.7220393614866451126301167350836
365,1.7225918800005801010567293492282
366,1.7231428877287975301298365051383
367,1.7236923929245490962461507904194
368,1.7242404037737409872954594766728
369,1.7247869283956668590755655563709
370,1.7253319748437289971333772349051
371,1.7258755511061505173475499332004
372,1.7264176651066775617398434535704
373,1.7269583247052714562384284122622
374,1.7274975376987951388804145557534
375,1.7280353118216845500325999399241
376,1.7285716547466164408540177492981
377,1.7291065740851643892215303635950
378,1.7296400773884461905374545312660
379,1.7301721721477644632321560142750
380,1.7307028657952372257355022634612
381,1.7312321657044213203638955385453
382,1.7317600791909258023024039669618
383,1.7322866135130199683550861978815
384,1.7328117758722309891741350256057
385,1.7333355734139347662344099898100
386,1.7338580132279406722159024305589
387,1.7343791023490659241413626057043
388,1.7348988477577035260779319880005
389,1.7354172563803844560973089560974
390,1.7359343350903312866106688551325
391,1.7364500907080035550277985529672
392,1.7369645300016384931257395371626
393,1.7374776596877845886230531611615
394,1.7379894864318265600637761977001
395,1.7385000168485046018936905469311
396,1.7390092575024275506037852671168
397,1.7395172149085796018585697092779
398,1.7400238955328205867512793956979
399,1.7405293057923783729869838434044
400,1.7410334520563376909599580066255
401,1.7415363406461214336539547915255
402,1.7420379778359651755918932567418
403,1.7425383698533877315841970479876
404,1.7430375228796556483756018048159
405,1.7435354430502390946459211875188
406,1.7440321364552652584100224657117
407,1.7445276091399663685481089557140
408,1.7450218671051198436712574800029
409,1.7455149163074834294111008158041
410,1.7460067626602278386242011654475
411,1.7464974120333611545407663344841
412,1.7469868702541485794602045209686
413,1.7474751431075286080660702780428
414,1.7479622363365220492195655796217
415,1.7484481556426381802077401127285
416,1.7489329066862744630941941809106
417,1.7494164950871126716735996377186
418,1.7498989264245085922818421313932
419,1.7503802062378795769892576130241
420,1.7508603400270849311146903685170
421,1.7513393332528030872616840506426
422,1.7518171913369048474954416102301
423,1.7522939196628205298183813931382
424,1.7527695235759046326877919613583
425,1.7532440083837943969520697696924
426,1.7537173793567658720657426818581
427,1.7541896417280849712308671676911
428,1.7546608006943535291720912949445
429,1.7551308614158542749518858008956
430,1.7555998290168875819511298121857
431,1.7560677085861074986893781677542
432,1.7565345051768542100186055374825
433,1.7570002238074782666078602628681
434,1.7574648694616676806762078072151
435,1.7579284470887657116688232928034
436,1.7583909616040872428876520238172
437,1.7588524178892319104667151002871
438,1.7593128207923929667782369294802
439,1.7597721751286625595954963306186
440,1.7602304856803344982469157170737
441,1.7606877571972016666370898116824
442,1.7611439943968516468031501398125
443,1.7615992019649602007245443148205
444,1.7620533845555772297793044927663
445,1.7625065467914145425305415515399
446,1.7629586932641264552137017529724
447,1.7634098285345903941184809467010
448,1.7638599571331807180909033683664
449,1.7643090835600436016832752128762
450,1.7647572122853651314195301772142
451,1.7652043477496401182951416780152
452,1.7656504943639344678849587684492
453,1.7660956565101468511567502378858
454,1.7665398385412660649667778309632
455,1.7669830447816277061353875510634
456,1.7674252795271654561295991079529
457,1.7678665470456616720880619716986
458,1.7683068515769936801122277468266
459,1.7687461973333782847780712511970
460,1.7691845884996141372412828185709
461,1.7696220292333198116895022755517
462,1.7700585236651708032243585858237
463,1.7704940758991340509738314202084
464,1.7709286900126981473735709231436
465,1.7713623700571032023856735698819
466,1.7717951200575674933848156361584
467,1.7722269440135101812608887317523
468,1.7726578458987751084152640141098
469,1.7730878296618481553823746545633
470,1.7735168992260756806526877009897
471,1.7739450584898783108421920201172
472,1.7743723113269643788572261749092
473,1.7747986615865383609947294092555
474,1.7752241130935118170125131906020
475,1.7756486696487057559633313818725
476,1.7760723350290569416381415090077
477,1.7764951129878184706586941402322
478,1.7769170072547592992477738118593
479,1.7773380215363616081050769544108
480,1.7777581595160164000128965373505
481,1.7781774248542158810906347767829
482,1.7785958211887461945305980363747
483,1.7790133521348758868560514919034
484,1.7794300212855429265047121322557
485,1.7798458322115417516579223017860
486,1.7802607884617049321576657326149
487,1.7806748935630862943418608804370
488,1.7810881510211401053320850320541
489,1.7815005643198995449233211739679
490,1.7819121369221523281708361148424
491,1.7823228722696156129243188332138
492,1.7827327737831087804644916766171
493,1.7831418448627240642194234619353
494,1.7835500888879961205654384853221
495,1.7839575092180687341764319664751
496,1.7843641091918619023075293992652
497,1.7847698921282349834995929800899
498,1.7851748613261498559222765212986
499,1.7855790200648315826413112849815
500,1.785982371603928714244171295064
501,1.786384919183668974800026928797
502,1.786786666025017786266508418674
503,1.787187615329831099402654313274
504,1.787587770281010374955756605679
505,1.787987134042652562516490482448
506,1.788385709760200807057587019527
507,1.788783500560593731107146774086
508,1.789180509552412932441976359522
509,1.789576739826026928111366443840
510,1.789972194453737597950828632268
511,1.790366876489922358582888102508
512,1.790760788971175968022350262533
513,1.791153934916450576546196050791
514,1.791546317327194700217374576751
515,1.791937939187491491287728644316
516,1.792328803464194515799946822229
517,1.792718913107062113114377758070
518,1.793108271048892122733208087894
519,1.793496880205653760359059136268
520,1.793884743476619500187021690114
521,1.794271863744493758654989275089
522,1.794658243875542655857187265915
523,1.795043886719721291781840269925
