Eigenstate,Potential Energy
1,0.500000000037796637586814069033747379
2,0.64623093789783134565809820824785163
3,0.73633761042968582836292496720004200
4,0.79966527932372673097740979948836162
5,0.8480465779004264451445096375898837
6,0.8870660009163331704920146514503704
7,0.9197208298105003491992626762715200
8,0.9477838509603443695296332165960805
9,0.9723835633724231299185610834868805
10,0.9942802211954890679826377961916525
11,1.0140093945707078098119442309718753
12,1.0319621788028048517446918868744941
13,1.0484327039576655520336799478451792
14,1.0636476677185013742098435002532830
15,1.0777854512000376161931043384375442
16,1.090988923818960328922993112164781
17,1.103374276755421956745033860615340
18,1.115037273959241762917856497973427
19,1.126057775253884177688898299648663
20,1.136503073970395801647866159606471
21,1.146430403029103017501689117474552
22,1.155888846098352460618571012618810
23,1.164920815531035938891552478698113
24,1.173563209765012801513650953553381
25,1.181848330119036498383946297306048
26,1.189804614600342466538284685403126
27,1.197457230867224076800771533030514
28,1.204828559588072563340021037104371
29,1.211938591643329036335971568645289
30,1.218805256967309107973964713706749
31,1.225444698680922161408460697814006
32,1.231871503088407707257797403725359
33,1.238098893801563467807634963061629
34,1.244138896504393562767018995554984
35,1.250002479531910104600846341468465
36,1.255699674403342632833504184247246
37,1.261239679645925268150330386904566
38,1.266630950615012723948983041030583
39,1.271881277518427663453082631759117
40,1.276997853457121106941091788099954
41,1.281987333977477319913219807739076
42,1.286855889375602011508098719896332
43,1.291609250787446327561370047702932
44,1.296252750930525107192660514362009
45,1.300791360225418302810103821727664
46,1.305229718912108180828650174040164
47,1.309572165682728308067921225664066
48,1.313822763274713964548612481795284
49,1.317985321403681079511255380560315
50,1.32206341736123807382926942973573
51,1.32606041455746802951700471650825
52,1.32997947924947339273517277125092
53,1.33382359566492529815105972348483
54,1.33759557970199847105569858969482
55,1.34129809136359717112908626342488
56,1.34493364606370307162007710259489
57,1.34850462492647700258914055468420
58,1.35201328418394930057187955397651
59,1.35546176376537955974637129849706
60,1.35885209516034207198567973419369
61,1.36218620862802901567260054312927
62,1.36546593981696244804062216330561
63,1.36869303585206426678471749536248
64,1.37186916093972082676378357314151
65,1.37499590153594405764393528427119
66,1.37807477111788358927794119777194
67,1.38110721459468210029040412124800
68,1.38409461238990994452990233561663
69,1.38703828422450243932262143174118
70,1.38993949262619493119797000915038
71,1.39279944618885205102581319137847
72,1.39561930260278932812490471932979
73,1.39840017147513232649891464541820
74,1.40114311695743961780350336381907
75,1.40384916019618480454503975105832
76,1.40651928162024325025617274831434
77,1.40915442307822677497550429516442
78,1.41175548983734377617831213706811
79,1.41432335245441541531305729655687
80,1.41685884852874038445387194629767
81,1.41936278434565142610272067062792
82,1.42183593641884532862128549957448
83,1.42427905293887938598295471684589
84,1.42669285513460301881917908818701
85,1.42907803855373397756073501396345
86,1.43143527426827268308501678646783
87,1.43376521000999078948074337877924
88,1.43606847124080667580557402805447
89,1.43834566216247707155071404618432
90,1.44059736666969080379723413536781
91,1.44282414925032920199820077266922
92,1.44502655583636939878143049642647
93,1.44720511460864451011219010825286
94,1.44936033675843174941691899148862
95,1.45149271720861837624013025588367
96,1.45360273529699355789009202548403
97,1.45569085542402988041944180292970
98,1.45775752766734537099195486895862
99,1.45980318836488342149779566522138
100,1.46182826066870166286328379253995
101,1.46383315507113153534689140738787
102,1.46581826990494472539201819810047
103,1.46778399181905472599416923013394
104,1.46973069623117451282996436405097
105,1.47165874775875825463817971324048
106,1.47356850062946421209958112143899
107,1.47546029907229789750679674815207
108,1.47733447769051532796103998097392
109,1.47919136181729761129847866398239
110,1.48103126785514568382382868617963
111,1.48285450359987815773035145582460
112,1.48466136855006580245191914981453
113,1.48645215420268064839873205761898
114,1.48822714433568894377195701486711
115,1.48998661527827674665003065532583
116,1.49173083616934860289105835824671
117,1.49346006920490804738907187803246
118,1.49517456987488763511631993300154
119,1.49687458718996249466744096055132
120,1.49856036389885555478653245953101
121,1.50023213669660432711367870558382
122,1.50189013642424021525493322725958
123,1.50353458826029912734769075811887
124,1.50516571190456448948468236702526
125,1.50678372175441419109683181429147
126,1.50838882707412779609758972385540
127,1.50998123215748977570498509385141
128,1.51156113648400193166783890193640
129,1.51312873486900610538434423775828
130,1.51468421760799988653407300649826
131,1.51622777061541263072634232846078
132,1.51775957555809411846731390430735
133,1.51927980998375640616372280571411
134,1.52078864744459814392294163093331
135,1.52228625761632252656624199432992
136,1.52377280641275635674166027323374
137,1.52524845609626439107971291363743
138,1.52671336538413952834418305904143
139,1.52816768955114729262497164747158
140,1.52961158052838761865144893372674
141,1.53104518699863238881497912131295
142,1.53246865448828909822220952331986
143,1.53388212545613237393135275625139
144,1.53528573937893789488690463070359
145,1.53667963283414907130885411673227
146,1.53806393957969897354189654566940
147,1.53943879063110179740391123025592
148,1.54080431433592919503972578421739
149,1.54216063644577327221199116114325
150,1.54350788018579989288363655439622
151,1.54484616632198820532293291194366
152,1.54617561322614668887713932773795
153,1.54749633693879467108448430477300
154,1.54880845122999321434189137384017
155,1.55011206765820360809634867580127
156,1.55140729562725133289775856246865
157,1.55269424244146654289084300633135
158,1.55397301335907288482155209278123
159,1.5552437116438883263652166418210
160,1.5565064386154043312881075532383
161,1.5577612936973018775352432676653
162,1.5590083744644637793178523856293
163,1.5602477766885381664715803100282
164,1.5614795943821077576526196032729
165,1.5627039198415135275612676492551
166,1.5639208436883832837536215185684
167,1.5651304549099123853328931931578
168,1.5663328408979392924060451416383
169,1.5675280874868610083680267736995
170,1.5687162789904281581017978045380
171,1.5698974982374598965266265475675
172,1.5710718266065165141248986220320
173,1.5722393440595651417500815137389
174,1.5734001291746743982021280348798
175,1.5745542591777719654752650886335
176,1.5757018099734947980031475012235
177,1.5768428561751652264109550827606
178,1.5779774711339221101426747058889
179,1.5791057269670334838815901264123
180,1.5802276945854216441348666737353
181,1.5813434437204233245405863359284
182,1.5824530429498126552546210337010
183,1.5835565597231099556633909002038
184,1.5846540603862006019305112342357
185,1.5857456102052857774728220003367
186,1.5868312733901860749567343863177
187,1.5879111131170217502844686975733
188,1.5889851915502850648562096581956
189,1.5900535698643284471674596399391
190,1.5911163082642841247880018219353
191,1.5921734660064344492423066970123
192,1.5932251014180492959621112522718
193,1.5942712719167088431258867084833
194,1.5953120340291250701344289044836
195,1.5963474434094799080469410173845
196,1.5973775548572937338429768093343
197,1.5984024223348385837959966687736
198,1.5994220989841102479022729797102
199,1.6004366371433720791834099558929
200,1.6014460883632844580258565245689
201,1.6024505034226308879390651320807
202,1.6034499323436540988464223543071
203,1.6044444244070128125934194894813
204,1.6054340281663707855377098445320
205,1.6064187914626280935355147508574
206,1.6073987614378076780244768179747
207,1.6083739845486030238310059865648
208,1.6093445065796011901098820058199
209,1.6103103726561869372465666909317
210,1.6112716272571394453240772330361
211,1.6122283142269289831140710126622
212,1.6131804767877237547169873899147
213,1.6141281575511113017426137953001
214,1.6150713985295494367172582139064
215,1.6160102411475459139457214099943
216,1.6169447262525807922815708500686
217,1.6178748941257754488442911914852
218,1.6188007844923172161295486884123
219,1.6197224365316429154446411507536
220,1.6206398888873937947930674487647
221,1.6215531796771397734940108215631
222,1.6224623465018901908984286760839
223,1.6233674264553846200285126634072
224,1.6242684561331788054348030216191
225,1.6251654716415282818093197112436
226,1.6260585086060732112910330087891
227,1.6269476021803330823060766006531
228,1.6278327870540130801376266530517
229,1.6287140974611292813644179893392
230,1.6295915671879573584000607283531
231,1.6304652295808065833913092265809
232,1.6313351175536295403835928476189
233,1.6322012635954625312458802848119
234,1.6330636997777128214082183393257
235,1.6339224577612858964992964126935
236,1.6347775688035624286395664166419
237,1.6356290637652285725036485277630
238,1.6364769731169613221501055909815
239,1.6373213269459743641845760034478
240,1.6381621549624265806594940190369
241,1.6389994865056974830440516686417
242,1.6398333505505324331996414286962
243,1.6406637757130616821191348485913
244,1.6414907902566949146494162881050
245,1.6423144220978956732931873814653
246,1.6431346988118381796407438412093
247,1.6439516476379479352011583806577
248,1.6447652954853336821706031118568
249,1.6455756689381056926366015384212
250,1.6463827942605907703225136630586
251,1.6471866974024418642823385936543
252,1.6479874040036450924443980230954
253,1.6487849393994292466049684533789
254,1.6495793286250774351279693785055
255,1.6503705964206447427780152137505
256,1.6511587672355819924526189708659
257,1.6519438652332719995559772708864
258,1.6527259142954747630718886561863
259,1.6535049380266883961849149578205
260,1.6542809597584261821525586650537
261,1.6550540025534100684849364668306
262,1.6558240892096853241618318807593
263,1.6565912422646552097734742726332
264,1.6573554839990411107411661767930
265,1.6581168364407666581494593381553
266,1.6588753213687680042254026504817
267,1.6596309603167334650009776730752
268,1.6603837745767725631614494184996
269,1.6611337852030187402820390004099
270,1.6618810130151614618813805532130
271,1.6626254786019169985316067962166
272,1.6633672023244318618730089254818
273,1.6641062043196263379311031680207
274,1.6648425045034753260373703281197
275,1.6655761225742303582162887985840
276,1.6663070780155810766751778650682
277,1.6670353900997636526933867064152
278,1.6677610778906079008425257016374
279,1.6684841602465345909893365579594
280,1.6692046558234950509348294500338
281,1.6699225830778609485000472171922
282,1.6706379602692617493142470236783
283,1.6713508054633730627395511247648
284,1.6720611365346530324549156995615
285,1.6727689711690335789480446369441
286,1.6734743268665625186476966341758
287,1.6741772209440016189760909829006
288,1.6748776705373769910850629063763
289,1.6755756926044864683281171617843
290,1.6762713039273647029840670178827
291,1.6769645211147038221606085227305
292,1.6776553606042325277725419090704
293,1.6783438386650575463578935819989
294,1.6790299713999624656347566688936
295,1.6797137747476660449322511042712
296,1.6803952644850475850442202408207
297,1.6810744562293292892193265494590
298,1.6817513654402249320272298858655
299,1.6824260074220516389454510049551
300,1.6830983973258065272586767573189
301,1.6837685501512086196950365543199
302,1.6844364807487081237182822110924
303,1.6851022038214602495915204573807
304,1.6857657339272671447284915568414
305,1.6864270854804893728456805629121
306,1.6870862727539262011216881225608
307,1.6877433098806618773244446271156
308,1.6883982108558853753415824526843
309,1.6890509895386796983870071448386
310,1.6897016596537810750366107879210
311,1.6903502347933116430040569677551
312,1.6909967284184831337963398540860
313,1.6916411538612729510053949382633
314,1.6922835243260744465175490008273
315,1.6929238528913207142914127394411
316,1.6935621525110832773545885226075
317,1.6941984360166432066320382564817
318,1.6948327161180400228598692080022
319,1.6954650054055955231546434289341
320,1.6960953163514125335053900348042
321,1.6967236613108525061311107966280
322,1.6973500525239880761443115215576
323,1.6979745021170340915678143821124
324,1.6985970221037560938547978368869
325,1.6992176243868580109014321616019
326,1.6998363207593472997891476162741
327,1.7004531229058803600207056822445
328,1.7010680424040854064552208991278
329,1.7016810907258677768105348824432
330,1.7022922792386941054088493822462
331,1.7029016192068568017521674474144
332,1.7035091217927198951620637118757
333,1.7041147980579466240317541513379
334,1.7047186589647069537068498077711
335,1.7053207153768693379201317484580
336,1.7059209780611727818255687092936
337,1.7065194576883820788699912122337
338,1.7071161648344272803486197287757
339,1.7077111099815234621444117660429
340,1.7083043035192768799854875441691
341,1.7088957557457732267923454346765
342,1.7094854768686504892579426231571
343,1.7100734770061560414443777497932
344,1.7106597661881879690973123536628
345,1.7112443543573224440074943619447
346,1.7118272513698246232086704284388
347,1.7124084669966466383654579280913
348,1.7129880109244094870709075969475
349,1.7135658927563723709731367595935
350,1.7141421220133870230681136621371
351,1.7147167081348391117575924085216
352,1.7152896604795764040345832509350
353,1.7158609883268229721706930923519
354,1.7164307008770808583794528726165
355,1.7169988072530195627365308991014
356,1.7175653165003515641438747481283
357,1.7181302375886971133809638742661
358,1.7186935794124375422488583808268
359,1.7192553507915528339521664685973
360,1.7198155604724523926433287153749
361,1.7203742171287907570051518405310
362,1.7209313293622747394788152972956
363,1.7214869057034565867582084553455
364,1.7220409546125181855520184235191
365,1.7225934844800445499906960498734
366,1.7231445036277854683561299433477
367,1.7236940203094082011549174743258
368,1.7242420427112380192749728714888
369,1.7247885789529912147814966242798
370,1.7253336370884962975396404294617
371,1.7258772251064062309850851038700
372,1.7264193509309006635345360073014
373,1.7269600224223781223654416164331
374,1.7274992473781424780571602339154
375,1.7280370335330743716789498833080
376,1.7285733885602990605532069746755
377,1.7291083200718424719218670153887
378,1.7296418356192786319401671407314
379,1.7301739426943703098174389871687
380,1.7307046487296996338841610731789
381,1.7312339610992915550385520563153
382,1.7317618871192272757587556937877
383,1.7322884340482523193593653209118
384,1.7328136090883742032100900571689
385,1.7333374193854533371895778602868
386,1.7338598720297878060431411411249
387,1.7343809740566877849990474802705
388,1.7349007324470435254583595967098
389,1.7354191541278875854607677264956
390,1.7359362459729484940489722800767
391,1.7364520148031961664883421655388
392,1.7369664673873826787353065216940
393,1.7374796104425758746565416398782
394,1.7379914506346843871122553950205
395,1.7385019945789769297922394303944
396,1.7390112488405955106889696118632
397,1.7395192199350621971316250891253
398,1.7400259143287794405327855581802
399,1.7405313384395225266557178052715
400,1.7410354986369284513774475857924
401,1.7415384012429772708847357000948
402,1.7420400525324666715377285959720
403,1.7425404587334825801595585455967
404,1.7430396260278637078602732328072
405,1.7435375605516574928594531927792
406,1.7440342683955735513628004339897
407,1.7445297556054317532313586459924
408,1.7450240281826024256595461150754
409,1.7455170920844415459592524803012
410,1.7460089532247234379506191795076
411,1.7464996174740652319993011776704
412,1.7469890906603466713121931865949
413,1.7474773785691263435749191665496
414,1.7479644869440507618001475065355
415,1.7484504214872605783739939056578
416,1.7489351878597903619581633375978
417,1.7494187916819647857608735422411
418,1.7499012385337883904388986719046
419,1.7503825339553332001696325540114
420,1.7508626834471191738424556710811
421,1.7513416924704914435818226629080
422,1.7518195664479936222330951650049
423,1.7522963107637350159807619405946
424,1.7527719307637553558541981481391
425,1.7532464317563834275112047426442
426,1.7537198190125932061702226361492
427,1.7541920977663549813533366616159
428,1.7546632732149814851595249594260
429,1.7551333505194729364878524694773
430,1.7556023348048538633498442774266
431,1.7560702311605092069583371842163
432,1.7565370446405168571410326931526
433,1.7570027802639719570101037969705
434,1.7574674430153140748599623925916
435,1.7579310378446450670018451149580
436,1.7583935696680455325624555745312
437,1.7588550433678880216518725363184
438,1.7593154637931459790010937776973
439,1.7597748357596991044121374528075
440,1.7602331640506362012705064022913
441,1.7606904534165526730118080428682
442,1.7611467085758462312282092053319
443,1.7616019342150104631474953748854
444,1.7620561349889208778983340822680
445,1.7625093155211227622590598275551
446,1.7629614804041118702805066553495
447,1.7634126341996151159939310749220
448,1.7638627814388644874481722399865
449,1.7643119266228720226218110530431
450,1.7647600742226979996971555481058
451,1.7652072286797198448338448228239
452,1.7656533944058945988357005106068
453,1.7660985757840206858284882721916
454,1.7665427771679953729445548255402
455,1.7669860028830715449326368699228
456,1.7674282572261090907429038774997
457,1.7678695444658255978409218194480
458,1.7683098688430427501979824225929
459,1.7687492345709309439345571536129
460,1.7691876458352517630103845230952
461,1.7696251067945961647399972801037
462,1.7700616215806215882374438158981
463,1.7704971942982865896159719102324
464,1.7709318290260811649056833197480
465,1.7713655298162567294800793096573
466,1.7717983006950528847491905300967
467,1.7722301456629202526918047961540
468,1.7726610686947443939306140422227
469,1.7730910737400632861089245359999
470,1.7735201647232858871705929224604
471,1.7739483455439060507164129907860
472,1.7743756200767160911136149795928
473,1.7748019921720153493273705801752
474,1.7752274656558212635359439204568
475,1.7756520443300718673551450091924
476,1.7760757319728322295458553653979
477,1.7764985323384951682754123962594
478,1.7769204491579809159922896757005
479,1.7773414861389346243741863577235
480,1.7777616469659221040054187917602
481,1.7781809353006223497355407867391
482,1.7785993547820204205845420180775
483,1.7790169090265960542712885620643
484,1.7794336016285108362005859411933
485,1.7798494361597953998668368842842
486,1.7802644161705312435507797583907
487,1.7806785451890340121768830410094
488,1.7810918267220328409035470274642
489,1.7815042642548489886326924650282
490,1.7819158612515716245733965560821
491,1.7823266211552329021482772035862
492,1.7827365473879809084400317886991
493,1.7831456433512504641936804273986
494,1.7835539124259328684233506204175
495,1.7839613579725427801290600088564
496,1.7843679833313854815534926124107
497,1.7847737918227202085085743575248
498,1.7851787867469234930348107051850
499,1.7855829713846500157265074032265
500,1.785986348996993098201951308187
501,1.786388922825640581742882829912
502,1.786790696093033547265401783054
503,1.787191672002519344729831056041
504,1.787591853738506775808724472459
505,1.787991244466616277259745333182
506,1.788389847333830835068160727990
507,1.788787665468645477368629203025
508,1.789184701981214986081077302307
509,1.789580959963498058132070793944
510,1.789976442489403969472680786181
511,1.790371152614934972952508264521
512,1.790765093378328330224266396337
513,1.791158267800196593399012530906
514,1.791550678883666812904539787544
515,1.791942329614519045832584457655
516,1.792333222961322375162204581308
517,1.792723361875569514646076956596
518,1.793112749291811784802621004385
519,1.793501388127791242017209574547
520,1.793889281284572817820629898730
521,1.794276431646673263641286893347
522,1.794662842082191177307893170052
523,1.795048515442934548536177581586
