Eigenstate,Potential Energy
1,0.500000000014336213650454494329272784
2,0.64623093774469393268373876494473915
3,0.73633760997985707260276427535862082
4,0.79966527838678490482709993125368119
5,0.8480465762774517095263029750090707
6,0.8870659984049245073368445147444570
7,0.9197208262066244277133735449514415
8,0.9477838460591069334555120166254228
9,0.9723835569684279998029325615552565
10,0.9942802130830206330323001011209651
11,1.0140093845438304268337342520037154
12,1.0319621666554199013139450135842284
13,1.0484326894835454432118061133964610
14,1.0636476507113102832238180460434491
15,1.0777854314533442220672007110064067
16,1.090988901126245522083133615402953
17,1.103374250910083277688768923871676
18,1.115037244754595648057870599178380
19,1.126057742483166694719513881323407
20,1.136503037426762319426893752290618
21,1.146430362505627108216468923239311
22,1.155888801388024238121084490548112
23,1.164920766426759975711358403788643
24,1.173563156059605726024465596101859
25,1.181848271605224345605306520670164
26,1.189804551070757836599580780619941
27,1.197457162114403141346278700913691
28,1.204828485404451950286218602768671
29,1.211938511821242616209696454325522
30,1.218805171298984699762688389794896
31,1.225444606958478171899781189675051
32,1.231871405103849714860394940690980
33,1.238098789346780759569207003715765
34,1.244138785371155631551208801245014
35,1.250002361511863112022349392018565
36,1.255699549288005842482368820403527
37,1.261239547226687452792493285172119
38,1.266630810683128549718320954614211
39,1.271881129865014053511771658134130
40,1.276997697873153586650491807555973
41,1.281987170253786345204681561325923
42,1.286855717302869281854829799244173
43,1.291609070156201084715716999338309
44,1.296252561531140420657630861048425
45,1.300791161848107342851630424587477
46,1.305229511346920479699674896094610
47,1.309571948719546010001949467583770
48,1.313822536703248064984841771575835
49,1.317985085013467653932680723146618
50,1.32206317094163449652664016380838
51,1.32606015789764918253309071623949
52,1.32997921213842786519386912469062
53,1.33382331789145157613299444310149
54,1.33759529105470111814503466514788
55,1.34129779163088299972428422101755
56,1.34493333503377730507366899182735
57,1.34850430238733942821749430054379
58,1.35201294992339041355477952808604
59,1.35546141757097669791790645702884
60,1.35885173681945554150166230936042
61,1.36218583792779820752548835676590
62,1.36546555654430194538023810602086
63,1.36869263979365994299191023211898
64,1.37186875188202593421421720702187
65,1.37499547926517530709026288938168
66,1.37807433542001721977069507854335
67,1.38110676525544993955080047364493
68,1.38409414919479545968132283547907
69,1.38703780695873677788166976522024
70,1.38993900107475295222088733538690
71,1.39279894013644834630103803424655
72,1.39561878183387423329842315523058
73,1.39839963577388792201487624887937
74,1.40114256610777571953902469890700
75,1.40384859398173494401465374495610
76,1.40651869982436064425835896162270
77,1.40915382548398028455076365257526
78,1.41175487622751385474558553106756
79,1.41432272261149004584873978885526
80,1.41685820223491100557539681561131
81,1.41936212138280884691637860036011
82,1.42183525656857563219188269178489
83,1.42427835598245982128096942553818
84,1.42669214085299788099914436518775
85,1.42907730672759047642277806602658
86,1.43143452467791679956984373715553
87,1.43376444243542312004659351018349
88,1.43606768546169826453416558212981
89,1.43834485795816522982764563042332
90,1.44059654381917491741084205709990
91,1.44282330753226652549936982789891
92,1.44502569502907083694554169967263
93,1.44720423449007038634294147531818
94,1.44935943710618756093046659585069
95,1.45149179779995053586663036961937
96,1.45360179590878512232851562370778
97,1.45568989583279626478012972893232
98,1.45775654764923004946028474690467
99,1.45980218769565361395091538707682
100,1.46182723912374400727078164093752
101,1.46383211242544774578494993318361
102,1.46581720593314723549941892455514
103,1.46778290629536231769736998612847
104,1.46972958892940793016308722872299
105,1.47165761845233580248273994496324
106,1.47356734909139733966747878331820
107,1.47545912507518676638889783674509
108,1.47733328100654436456252827745372
109,1.47919014221823104348085839922324
110,1.48103002511232306157234571934480
111,1.48285323748420985766433596766916
112,1.48466007883202851599433281686361
113,1.48645084065231285342001787475926
114,1.48822580672258635952204373067636
115,1.48998525337158777179106524071456
116,1.49172944973776973644227206755657
117,1.49345865801667929239389031495604
118,1.49517313369778788484056302278468
119,1.49687312579130490113624912629993
120,1.49855887704548287946624081352142
121,1.50023062415488427354373259098905
122,1.50188859796006074343354949216047
123,1.50353302363906374967365640695455
124,1.50516412089118754805641078348784
125,1.50678210411331611616841256536254
126,1.50838718256923034549024241389033
127,1.50997956055221125497098364697953
128,1.51155943754125239480253316032676
129,1.51312700835118253588060675665304
130,1.51468246327698135857206760631978
131,1.51622598823255545029013625277777
132,1.51775776488422694417821434722836
133,1.51927797077917534961918686786886
134,1.52078677946906184932807081440515
135,1.52228436062904722944350118996954
136,1.52377088017241092150317300570617
137,1.52524650036096532724468535475166
138,1.52671137991144598518273379758007
139,1.52816567409805603200791957023514
140,1.52960953485132796588419118388439
141,1.53104311085346116123201012962128
142,1.53246654763028551131716732032506
143,1.53387998763999292479599251238984
144,1.53528357035877122273060335919523
145,1.53667743236347079482886746021003
146,1.53806170741142650491269941823631
147,1.53943652651754913265238910967842
148,1.54080201802880168057132390064384
149,1.54215830769616234725110418588230
150,1.54350551874417780758998720592162
151,1.54484377193820271434365912568962
152,1.54617318564941572009283650777394
153,1.54749387591770096930541285782932
154,1.54880595651247895970898697678629
155,1.55010953899156500893967844752372
156,1.55140473275813319280320328896610
157,1.55269164511585680172409902155212
158,1.55397038132229713345648216997480
159,1.5552410446406042948617586167216
160,1.5565037363895963502629920653180
161,1.5577585559922753124668460515645
162,1.5590056010228394375244150396602
163,1.5602449672522466765003247365677
164,1.5614767486923839208149175439264
165,1.5627010376388906413471745291688
166,1.5639179247126874368570542164411
167,1.5651274989002567240166034879204
168,1.5663298475927182579332490414153
169,1.5675250566237445452258538325481
170,1.5687132103063558927390347433409
171,1.5698943914686352863264885343990
172,1.5710686814884009663310976664549
173,1.5722361603268721020624083575025
174,1.5733969065613634087553305299337
175,1.5745509974170426919128660104580
176,1.5756985087977810253554962361316
177,1.5768395153161288234844527173884
178,1.5779740903224469621248289429290
179,1.5791023059332193928640636472206
180,1.5802242330585781972543989743281
181,1.5813399414290637294351216056248
182,1.5824494996216475425295886863261
183,1.5835529750850411480605646616782
184,1.5846504341643148498893965705696
185,1.5857419421248484607717847201162
186,1.5868275631756348701189009257470
187,1.5879073604919602634304110392941
188,1.5889813962374764296830121692670
189,1.5900497315856888877311228865390
190,1.5911124267408764827632884073629
191,1.5921695409584616753316034797724
192,1.5932211325648479051219443499123
193,1.5942672589767423332771486314540
194,1.5953079767199773040193360113168
195,1.5963433414478484578930925793787
196,1.5973734079589831884918786425091
197,1.5983982302147538179505816747773
198,1.5994178613562496531449991341556
199,1.6004323537208207564133897767104
200,1.6014417588582073709607530059075
201,1.6024461275462659773242621375212
202,1.6034455098063053570107746902803
203,1.6044399549180433179881431675851
204,1.6054295114341956968914025490802
205,1.6064142271947076032555331715695
206,1.6073941493406399244712884777849
207,1.6083693243277169620892136100718
208,1.6093397979395494208760918801795
209,1.6103056153005384934510030473535
210,1.6112668208884725360996181611496
211,1.6122234585468236947227617103753
212,1.6131755714967547080409165977123
213,1.6141232023488402659421508656421
214,1.6150663931145178986566392133185
215,1.6160051852172676029820030507235
216,1.6169396195035341600095230752410
217,1.6178697362533961033862485796791
218,1.6187955751909903105554105427348
219,1.6197171754946954899035642156657
220,1.6206345758070870719346205967302
221,1.6215478142446614067528050802636
222,1.6224569284073464652121864290188
223,1.6233619553877926045559747369505
224,1.6242629317804584578357040875948
225,1.6251598936904945036446130354352
226,1.6260528767424278540977848229226
227,1.6269419160886569038971785709406
228,1.6278270464177576506723841535950
229,1.6287083019626088387319773886744
230,1.6295857165083406124533269082455
231,1.6304593234001084685647904164542
232,1.6313291555507029162243397043417
233,1.6321952454479898303822955684958
234,1.6330576251621976444770738865643
235,1.6339163263530445535468503528751
236,1.6347713802767154265080919983789
237,1.6356228177926920477103729193633
238,1.6364706693704384187606260586250
239,1.6373149650959465561784356147050
240,1.6381557346781449382805371084869
241,1.6389930074551738826237003854864
242,1.6398268124005307099365332969109
243,1.6406571781290887252928980668455
244,1.6414841329029917047426559361261
245,1.6423077046374282604895405466169
246,1.6431279209062886031625237853539
247,1.6439448089477050829447958564403
248,1.6447583956694840900928786206749
249,1.6455687076544242833395853270571
250,1.6463757711655315302795772396848
251,1.6471796121511284591424829764120
252,1.6479802562498614198464743953741
253,1.6487777287956099259283438427680
254,1.6495720548222982335999913068453
255,1.6503632590686129373536715637694
256,1.6511513659826266668754874814652
257,1.6519363997263342760043740340037
258,1.6527183841800979677880041605890
259,1.6534973429470081584789023177852
260,1.6542732993571604661677783206046
261,1.6550462764718491371039931491873
262,1.6558162970876816344277640236319
263,1.6565833837406132391935492271217
264,1.6573475587099071138350773952306
265,1.6581088440220183525969111479758
266,1.6588672614544041859622226829729
267,1.6596228325392635516060191618536
268,1.6603755785672060648700214641429
269,1.6611255205908546579554326111875
270,1.6618726794283776112548872515984
271,1.6626170756669592600569544836733
272,1.6633587296662033554640648907133
273,1.6640976615614765219150031348893
274,1.6648338912671890196060369265967
275,1.6655674384800166866665434132556
276,1.6662983226820623387177491312866
277,1.6670265631439641091047751783258
278,1.6677521789279424837256376159766
279,1.6684751888907975329018440158961
280,1.6691956116868484331362257855576
281,1.6699134657708231675610236888096
282,1.6706287694006959013243651954251
283,1.6713415406404752443412752584721
284,1.6720517973629405579243099524786
285,1.6727595572523331125339197677197
286,1.6734648378069981213738412010817
287,1.6741676563419827091021798834854
288,1.6748680299915862174139213445266
289,1.6755659757118674955388084203477
290,1.6762615102831099081613702485807
291,1.6769546503122419016831672416512
292,1.6776454122352160137132733876258
293,1.6783338123193502315412676795144
294,1.6790198666656267364866224484154
295,1.6797035912109501212492492863923
296,1.6803850017303726658003706479880
297,1.6810641138392766035180653161084
298,1.6817409429955226942982657195834
299,1.6824155045015619074758748613602
300,1.6830878135065119651383913780103
301,1.6837578850081991572468002433385
302,1.6844257338551675214730022424102
303,1.6850913747486525608593910135471
304,1.6857548222445230768065008070227
305,1.6864160907551925458917164450442
306,1.6870751945514993037154432166348
307,1.6877321477645527177246403087182
308,1.6883869643875528274386591725956
309,1.6890396582775795413392571193077
310,1.6896902431573517255677678441875
311,1.6903387326169597793286348936629
312,1.6909851401155692101279277499152
313,1.6916294789830966015925163484534
314,1.6922717624218597781396105187273
315,1.6929120035082014861361183445566
316,1.6935502151940879671863503402244
317,1.6941864103086799621493102832831
318,1.6948206015598814971270800863775
319,1.6954528015358635929824537826285
320,1.6960830227065628996407228180970
321,1.6967112774251591741061326088982
322,1.6973375779295277166202905694936
323,1.6979619363436702789982408413511
324,1.6985843646791234222778303904552
325,1.6992048748363460856599999672700
326,1.6998234786060846039625395802387
327,1.7004401876707179943392531419041
328,1.7010550136055807014553420989945
329,1.7016679678802677759738125011214
330,1.7022790618599189180149653896563
331,1.7028883068064828241614954061385
332,1.7034957138799628992293099575285
333,1.7041012941396447113375262856333
334,1.7047050585453033742795073894311
335,1.7053070179583951721054086675629
336,1.7059071831432294839461285546445
337,1.7065055647681238813024072455904
338,1.7071021734065434566292403189573
339,1.7076970195382204477005471887850
340,1.7082901135502602490720163053368
341,1.7088814657382295241978488722902
342,1.7094710863072289153285475626605
343,1.7100589853729499889566918640621
344,1.7106451729627164104956089193632
345,1.7112296590165111675027292665483
346,1.7118124533879873162202277173025
347,1.7123935658454658167694497259993
348,1.7129730060729172687004429615477
349,1.7135507836709310917992209922249
350,1.7141269081576696944706819814248
351,1.7147013889698097172790744395036
352,1.7152742354634700339887875693764
353,1.7158454569151257944618715817083
354,1.7164150625225099238667741077082
355,1.7169830614055024434604031157789
356,1.7175494626070058227108098318531
357,1.7181142750938096017837166857274
358,1.7186775077574435283790956258079
359,1.7192391694150149540417266673834
360,1.7197992688100394278503641501503
361,1.7203578146132562323402398058972
362,1.7209148154234353432448869661576
363,1.7214702797681704086566750081472
364,1.7220242161046627715863595061191
365,1.7225766328204947722755700169326
366,1.7231275382343912079190128320535
367,1.7236769405969718417940160342661
368,1.7242248480914917505139724815407
369,1.7247712688345741419391611418198
370,1.7253162108769313569081229713483
371,1.7258596822040769080873147578689
372,1.7264016907370275124067648204230
373,1.7269422443329950837859992428994
374,1.7274813507860729946186985059994
375,1.7280190178279072975747267285888
376,1.7285552531283643639243252017657
377,1.7290900642961867275839007995740
378,1.7296234588796403022841850736220
379,1.7301554443671548116514644953417
380,1.7306860281879541889555845368442
381,1.7312152177126798219497453619491
382,1.7317430202540037609607844510887
383,1.7322694430672365648805204736403
384,1.7327944933509247487474767961424
385,1.7333181782474414541623949602551
386,1.7338405048435710011780479389933
387,1.7343614801710830709873447215743
388,1.7348811112073004561949044104625
389,1.7353994048756610533438774686928
390,1.7359163680462712867894854675205
391,1.7364320075364512808446861390783
392,1.7369463301112753885590666325402
393,1.7374593424841055506012652052387
394,1.7379710513171160653248932465362
395,1.7384814632218126268736620596841
396,1.7389905847595452821756407945974
397,1.7394984224420149367171606635388
398,1.7400049827317734172124414674971
399,1.7405102720427156569423428850578
400,1.7410142967405683037010426847403
401,1.7415170631433707992520470096835
402,1.7420185775219496754910895543107
403,1.7425188461003888880369890866071
404,1.7430178750564940803210798203291
405,1.7435156705222482436013360060763
406,1.7440122385842648819165263545705
407,1.7445075852842357986810416271642
408,1.7450017166193710080951074037965
409,1.7454946385428336324277917770098
410,1.7459863569641722996314257672594
411,1.7464768777497453012859335734970
412,1.7469662067231400934424845421699
413,1.7474543496655892194060928117610
414,1.7479413123163790782829319033856
415,1.7484271003732558232349028673675
416,1.7489117194928248190544230578785
417,1.7493951752909465075263836672666
418,1.7498774733431258437931715524952
419,1.7503586191848995822146593901816
420,1.7508386183122163936247172236508
421,1.7513174761818137661477464129501
422,1.7517951982115909711574658092305
423,1.7522717897809759304973958513346
424,1.7527472562312895986671201415900
425,1.7532216028661042393135092353321
426,1.7536948349515992028456741466226
427,1.7541669577169116897819130954013
428,1.7546379763544825134946025432901
429,1.7551078960204007747184625370114
430,1.7555767218347403099052393390761
431,1.7560444588818954170563002598217
432,1.7565111122109130085235442681230
433,1.7569766868358165286523280653410
434,1.7574411877359327341791855364607
435,1.7579046198562091610337177177569
436,1.7583669881075301785102071270844
437,1.7588282973670297921527774950041
438,1.7592885524784001773923311703295
439,1.7597477582521966252133144085194
440,1.7602059194661399710367925015378
441,1.7606630408654136666450312220824
442,1.7611191271629590587663571349993
443,1.7615741830397685219870776056033
444,1.7620282131451710653326732834903
445,1.7624812220971197431477251994105
446,1.7629332144824718945939495855279
447,1.7633841948572693809044575562906
448,1.7638341677470120385650351326838
449,1.7642831376469321888956702225966
450,1.7647311090222623564418349171962
451,1.7651780863085036992373267433312
452,1.7656240739116879922541859303824
453,1.7660690762086389070782968034479
454,1.7665130975472289767258078486088
455,1.7669561422466358694384370975272
456,1.7673982145975932684221740459681
457,1.7678393188626410532010985849365
458,1.7682794592763711784473919470168
459,1.7687186400456717641761002561530
460,1.7691568653499690396112927772993
461,1.7695941393414649904113803037639
462,1.7700304661453739222665473112365
463,1.7704658498601565446015215502930
464,1.7709002945577497352513410677008
465,1.7713338042837959548066494871505
466,1.7717663830578694412865607447073
467,1.7721980348736984656156061676963
468,1.7726287636993886635054072377133
469,1.7730585734776399203978092626692
470,1.7734874681259643339689406146055
471,1.7739154515368995212597305710117
472,1.7743425275782215680027308192488
473,1.7747687000931529710054834360932
474,1.7751939729005730775407864049449
475,1.7756183497952199444556299692173
476,1.7760418345478961307598702415986
477,1.7764644309056687566465285698691
478,1.7768861425920685048867281240887
479,1.7773069733072864539368911879281
480,1.7777269267283691372928151711284
481,1.7781460065094103799172980185144
482,1.7785642162817434804800844217176
483,1.7789815596541291193575251057446
484,1.7793980402129418120965882688840
485,1.7798136615223563851678882486048
486,1.7802284271245290587487747390807
487,1.7806423405397799852657323993926
488,1.7810554052667718401279437506175
489,1.7814676247826876926968977402753
490,1.7818790025434060204801529022721
491,1.7822895419836750006920798739479
492,1.7826992465172846672270819913015
493,1.7831081195372369079093927125751
494,1.7835161644159143959127947386387
495,1.7839233845052466476970963567345
496,1.7843297831368764517306734758226
497,1.7847353636223223533657753815761
498,1.7851401292531411409633841993534
499,1.7855440833010878304294867322659
500,1.785947229018275278472375504447
501,1.786349569637329170427555529949
502,1.786751108371545837634907927137
503,1.787151848415044372294192207410
504,1.787551792942920883433412700677
505,1.787950945111397741247217105784
506,1.788349308057973539681402341668
507,1.788746884901571625075365162614
508,1.789143678742686830601643345168
509,1.789539692663528647168957628091
510,1.789934929728166883798917910464
511,1.790329392982673048321939518796
512,1.790723085455261348356653798538
513,1.791116010156427928076574379233
514,1.791508170079089016993085419287
515,1.791899568198718364819384297301
516,1.792290207473482172570230077463
517,1.792680090844372594454420344628
518,1.793069221235341595763761796429
519,1.793457601553431948521309671742
520,1.793845234688908221709938364646
521,1.794232123515384561129087450380
522,1.794618270889953534898807512246
523,1.795003679653312481587490812059
