Eigenstate,Potential Energy
1,0.500000000012233412235472311876548409
2,0.64623093773096796609028686353493221
3,0.73633760993953826818872177119643666
4,0.79966527830280576686843629254855834
5,0.8480465761319833810162950426981186
6,0.8870659981798265641091836269822724
7,0.9197208258836107129989971441310268
8,0.9477838456198148160917622930139927
9,0.9723835563944506697019071890907774
10,0.9942802123559235757797528779233554
11,1.0140093836451604505996058126644453
12,1.0319621655667103685857852792017984
13,1.0484326881863194364701772102504859
14,1.0636476491870825816480224680733730
15,1.0777854296836225610075344341462542
16,1.090988899092531402051176569684017
17,1.103374248593872480362977255763422
18,1.115037242137378555853745922451214
19,1.126057739546428475090942037215159
20,1.136503034151983013790669701126392
21,1.146430358874281652196249930742718
22,1.155888797381582431392127327763786
23,1.164920762026686414226226680944652
24,1.173563151247359705722107665686110
25,1.181848266362259744196770622440643
26,1.189804545378522978279974543603027
27,1.197457155954340648050302102156395
28,1.204828478757998582220211391349236
29,1.211938504669829103749370075092706
30,1.218805163624035568330941357137837
31,1.225444598741411561084602944165763
32,1.231871396326077192765352816261757
33,1.238098779989707133184970323182904
34,1.244138775416178753779417628039242
35,1.250002350940373685861008409219582
36,1.255699538081387222786227816346541
37,1.261239535366315445946253586509309
38,1.266630798150371211500318836248381
39,1.271881116641231485377548391324302
40,1.276997683939697730626731732332790
41,1.281987155592000777552400755042654
42,1.286855701894089005634883475890075
43,1.291609053981752321368496208545051
44,1.296252544572340400691320160193781
45,1.300791144086264095718869909266748
46,1.305229492763332622930362351497729
47,1.309571929295502537649775074553768
48,1.313822516420028135436612335910396
49,1.317985063852340377122283296706121
50,1.32206314888385872058938066382847
51,1.32606013492447327993093643733497
52,1.32997918823108951833767834932174
53,1.33382329303117756252399992507659
54,1.33759526522270709505456992700581
55,1.34129776480837328842790688868831
56,1.34493330720194467465338279071482
57,1.34850427352736487894364713512010
58,1.35201292001644295985735154231021
59,1.35546138659821315095528986082417
60,1.35885170476202029133361252834618
61,1.36218580476682300489568292484678
62,1.36546552226090568311277700433627
63,1.36869260436894843700513033471506
64,1.37186871529709170415433471787843
65,1.37499544150109735658659558818433
66,1.37807429645786081631354362529075
67,1.38110672507626639399246817708463
68,1.38409410777962190536021246848287
69,1.38703776428859594936891424675482
70,1.38993895713065296368854841432085
71,1.39279889489938246951050585090623
72,1.39561873528482067520731668289949
73,1.39839958789380960200041342376075
74,1.40114251687762004623555746914320
75,1.40384854338243359176279606062082
76,1.40651864783682932916290985710909
77,1.40915377208911854014440790840852
78,1.41175482140620480725515775844791
79,1.41432266634460018906066132942698
80,1.41685814450328997529673798714428
81,1.41936206216728919502783360209504
82,1.42183519584997260028882173732721
83,1.42427829374157111389859053801530
84,1.42669207707060343841764590557318
85,1.42907724138445224704834903084328
86,1.43143445775477851188717601983020
87,1.43376437391301005413851984954867
88,1.43606761532071702316394373314865
89,1.43834478617930350907932521947926
90,1.44059647038310127688307066628092
91,1.44282323241963015804792573558313
92,1.44502561822050133796981048207266
93,1.44720415596617752261148882933566
94,1.44935935684756103894080031352821
95,1.45149171578715976973418110684086
96,1.45360171212237900119982045407107
97,1.45568981025330291976513615458215
98,1.45775646025715662007865704309039
99,1.45980209847148601408716505002570
100,1.46182714804794669063300664978995
101,1.46383201947846347086191265454521
102,1.46581711109539683001065965166119
103,1.46778280954724444253100831385436
104,1.46972949025129884279591348363204
105,1.47165751782458911987717784862686
106,1.47356724649434380063994871198267
107,1.47545902048913399344407113596241
108,1.47733317441177662518794172161377
109,1.47919003359500901089630803853101
110,1.48102991444088357492844998014138
111,1.48285312474476568168461941536431
112,1.48465996400476810005516004870721
113,1.48645072371740009006266128200432
114,1.48822568766016034239113798509101
115,1.48998513216176255299367635454682
116,1.49172932636063408332177028692495
117,1.49345853245229644371278626194995
118,1.49517300592619530636643744813008
119,1.49687299579251404062486912012520
120,1.49855874479947892103593313792232
121,1.50023048964162589143504778868395
122,1.50188846115947985514821721201537
123,1.50353288453106526848681131016334
124,1.50516397945564913489603306057394
125,1.50678196033008793085588748146149
126,1.50838703641813479733592822082226
127,1.50997941201304275271864159692488
128,1.51155928659377709591643352865788
129,1.51312685497513809516910700706221
130,1.51468230745207667614142641614875
131,1.51622582993847041882228218963305
132,1.51775760410061219552617448258061
133,1.51927780748565200071384840700401
134,1.52078661364522124738990692058224
135,1.52228419225445069649286172260385
136,1.52377070922658949816273146508156
137,1.52524632682341951582757261744806
138,1.52671120376164549205987243717690
139,1.52816549531543950924804664892235
140,1.52960935341530275216000765208156
141,1.53104292674340302198588536239471
142,1.53246636082553837817977631168193
143,1.53387979811986863425123986048547
144,1.53528337810254925402015306450843
145,1.53667723735039800708956963053737
146,1.53806150962071687354016471702792
147,1.53943632592838348488392950358606
148,1.54080181462032743028145490473536
149,1.54215810144749322895275376332644
150,1.54350530963439360963453887748801
151,1.54484355994634901131290808644376
152,1.54617297075450360437591548507313
153,1.54749365809870678185370256552321
154,1.54880573574834401996198863666156
155,1.55010931526119534391480522141930
156,1.55140450604039926534238769207306
157,1.55269141538959323789010499904602
158,1.55397014856630244907174949371287
159,1.5552408088336406211825900027776
160,1.5565034975103891587818469855135
161,1.5577583140195131388354656759862
162,1.5590053559351736045904765902187
163,1.5602447190282910164502682037955
164,1.5614764973107144964155939511215
165,1.5627007830780454662788349130481
166,1.5639176669511661951302699002779
167,1.5651272379165204884656138382577
168,1.5663295833651892077781715376455
169,1.5675247891308056826961926692822
170,1.5687129395263507587508613967060
171,1.5698941173798676752056738760878
172,1.5710684040691346395748391862223
173,1.5722358795553305011313557855566
174,1.5733966224157293668885117829702
175,1.5745507098754581449575988587013
176,1.5756982178383467216044104460349
177,1.5768392209169040325117232913455
178,1.5779737924614491826136856393978
179,1.5791020045884240594175541096122
180,1.5802239282079183861813896036452
181,1.5813396330504298635034581638914
182,1.5824491876928870946782892541589
183,1.5835526595839583440628677916465
184,1.5846501150686703699584685324520
185,1.5857416194123591401008110448558
186,1.5868272368239733983472741355282
187,1.5879070304787548830276520904733
188,1.5889810625403106332420421978742
189,1.5900493941821011141624217028753
190,1.5911120856083598123814648821102
191,1.5921691960744635238258422632985
192,1.5932207839067697164017316844289
193,1.5942669065219392711846457741444
194,1.5953076204457579428997087315139
195,1.5963429813314744720140868500114
196,1.5973730439776690403038380204737
197,1.5983978623456664451780691461155
198,1.5994174895765081547011665688689
199,1.6004319780074960771281332440316
200,1.6014413791883219851136722160792
201,1.6024457438967935709733971738833
202,1.6034451221541705091080175864428
203,1.6044395632401211802721826351602
204,1.6054291157073116725490042432371
205,1.6064138273956370243419101502856
206,1.6073937454461077280802468932704
207,1.6083689163143973652637277980401
208,1.6093393857840655942498705853992
209,1.6103051989794622336115877448234
210,1.6112664003783239366634994609486
211,1.6122230338240708161129031786579
212,1.6131751425378132459570735013218
213,1.6141227691300732185142451466736
214,1.6150659556122352322714877964648
215,1.6160047434077259167735292348314
216,1.6169391733629363490026170551591
217,1.6178692857578910202843125379838
218,1.6187951203166724261616182185883
219,1.6197167162176045521657587382154
220,1.6206341121032077636037519740007
221,1.6215473460899230016447097303647
222,1.6224564557776224830624889387530
223,1.6233614782589004644577947331290
224,1.6242624501281591302497987965011
225,1.6251594074904921609715298052012
226,1.6260523859703695198015343214844
227,1.6269414207201321001698559780364
228,1.6278265464282980446291270441260
229,1.6287077973276878871255542578727
230,1.6295852072033732048976021401685
231,1.6304588094004505692562402252212
232,1.6313286368316512041507253177560
233,1.6321947219847813380075404892545
234,1.6330570969300093948912902823889
235,1.6339157933269931960704300970600
236,1.6347708424318568707387058331708
237,1.6356222751040210960015987316193
238,1.6364701218128883971209147248804
239,1.6373144126443889435790488861829
240,1.6381551773073889943609489752378
241,1.6389924451399662737829713832993
242,1.6398262451155551337990495771964
243,1.6406566058489655335367593781611
244,1.6414835556022775242790100865541
245,1.6423071222906156129809969568593
246,1.6431273334878055228687429673436
247,1.6439442164319147328832862205332
248,1.6447577980306843765029130994633
249,1.6455681048668474684371212532668
250,1.6463751632033438432909606368100
251,1.6471789989884297056046030823870
252,1.6479796378606845891610181575987
253,1.6487771051539207971576969520399
254,1.6495714259019949794922106970575
255,1.6503626248435257265839315082054
256,1.6511507264265172644912682730920
257,1.6519357548128956420616086821738
258,1.6527177338829538541653150004462
259,1.6534966872397127038569511170855
260,1.6542726382131977891606857672338
261,1.6550456098646329275296829645975
262,1.6558156249905547427040109703630
263,1.6565827061268472638464319294599
264,1.6573468755527019871064141637106
265,1.6581081552945019241371879462877
266,1.6588665671296318045954415329195
267,1.6596221325902176451528023559721
268,1.6603748729667957180151624382716
269,1.6611248093119151881460697532489
270,1.6618719624436701426153515731996
271,1.6626163529491702953062146072071
272,1.6633580011879443458216346453405
273,1.6640969272952834349810929785241
274,1.6648331511855219052015717574775
275,1.6655666925552592406186536831210
276,1.6662975708865214645761745666610
277,1.6670258054498694777745316399114
278,1.6677514153074460910012551588854
279,1.6684744193159732548883150475776
280,1.6691948361296915795417058017076
281,1.6699126842032500328462796308324
282,1.6706279817945433136938026917573
283,1.6713407469675001125603067687275
284,1.6720509975948194159476765533165
285,1.6727587513606616619295454570076
286,1.6734640257632907715266126935542
287,1.6741668381176721151819879622533
288,1.6748672055580228160921716436910
289,1.6755651450403190384374895872811
290,1.6762606733447609930186846062231
291,1.6769538070781935012196022610610
292,1.6776445626764850021818331062205
293,1.6783329564068689089455624951979
294,1.6790190043702423504503207619055
295,1.6797027225034243865203179065429
296,1.6803841265813812813733980605694
297,1.6810632322194087673578243465427
298,1.6817400548752806156476191833451
299,1.6824146098513603167309077432478
300,1.6830869122966776212736580877450
301,1.6837569772089703527733030288519
302,1.6844248194366935849115180097093
303,1.6850904536809933567116037204713
304,1.6857538944976485030062119431666
305,1.6864151562989820287183515596884
306,1.6870742533557412901519475258818
307,1.6877311997989441652416296380864
308,1.6883860096216986911866934359024
309,1.6890386966809922587308791831019
310,1.6896892746994506982308640392609
311,1.6903377572670708524125159538304
312,1.6909841578429241489433766304393
313,1.6916284897568325655669930542348
314,1.6922707662110187920685647891125
315,1.6929110002817299087112684937200
316,1.6935492049208359567816875270412
317,1.6941853929574009398453864303081
318,1.6948195770992316069539738834583
319,1.6954517699344011593617959167821
320,1.6960819839327478820068107919486
321,1.6967102314473526186862499181898
322,1.6973365247159912053540180381640
323,1.6979608758625653755754555498446
324,1.6985832968985111152750231158218
325,1.6992037997241862287542336179443
326,1.6998223961302353532022884166456
327,1.7004390977989352424513636108995
328,1.7010539163055175091668715112147
329,1.7016668631194738003276184483220
330,1.7022779496058398376576553784661
331,1.7028871870264597615822418345195
332,1.7034945865412318399277903437337
333,1.7041001592093359198991679606836
334,1.7047039159904408073359424455527
335,1.7053058677458958881580496397760
336,1.7059060252399030500304586547386
337,1.7065043991406717764704519400866
338,1.7071010000215584722275750182065
339,1.7076958383621860844209120349253
340,1.7082889245495501107515754885376
341,1.7088802688791067083458582873791
342,1.7094698815558454003559899819354
343,1.7100577726953460180854182572434
344,1.7106439523248198723231418869032
345,1.7112284303841369731988338751963
346,1.7118112167268367733312420588789
347,1.7123923211211259996059179343607
348,1.7129717532508603852836849815325
349,1.7135495227165138473421683334107
350,1.7141256390361326513681102045924
351,1.7147001116462766515821463151186
352,1.7152729499029472883387810825200
353,1.7158441630825016274575181772926
354,1.7164137603825538558396853449886
355,1.7169817509228645986327597498813
356,1.7175481437462162677092405697863
357,1.7181129478192776804831853883867
358,1.7186761720334571930503231972086
359,1.7192378252057400927755749190012
360,1.7197979160795191882322647151451
361,1.7203564533254103413477242220143
362,1.7209134455420594233408545258937
363,1.7214689012569352900509844629074
364,1.7220228289271138006380511927457
365,1.7225752369400511160078203643315
366,1.7231261336143451546186356862630
367,1.7236755272004880976672863974236
368,1.7242234258816067323701624686255
369,1.7247698377741952658728875133625
370,1.7253147709288363229516662679110
371,1.7258582333309129808036115464688
372,1.7264002329013107973934996588783
373,1.7269407774971098000611915066977
374,1.7274798749122707428578378873455
375,1.7280175328783063241692544124857
376,1.7285537590649488208310106408420
377,1.7290885610808059279345060159189
378,1.7296219464740079717245394391030
379,1.7301539227328483353786575995573
380,1.7306844972864138544220758971824
381,1.7312136775052080572025567970138
382,1.7317414707017643685840422051152
383,1.7322678841312539515090091874142
384,1.7327929249920831501190177812985
385,1.7333166004264841556761069548038
386,1.7338389175210995539257799927328
387,1.7343598833075565032249930178944
388,1.7348795047630344802200951825976
389,1.7353977888108272677463456755663
390,1.7359147423208963740401261409902
391,1.7364303721104162001889693165220
392,1.7369446849443145641802750341377
393,1.7374576875358060550187070536846
394,1.7379693865469167979919334469469
395,1.7384797885890034879402103672773
396,1.7389889002232663413794139927685
397,1.7394967279612555973675739007470
398,1.7400032782653715752310772281607
399,1.7405085575493568549232143659984
400,1.7410125721787848799539247008991
401,1.7415153284715410317915741882188
402,1.7420168326982969209342265657490
403,1.7425170910829807153710112569550
404,1.7430161098032413995040383493019
405,1.7435138949909044289564997869206
406,1.7440104527324248902821452601497
407,1.7445057890693352822763304568396
408,1.7449999099986854220631102806647
409,1.7454928214734773370154127421982
410,1.7459845294030976569665937560405
411,1.7464750396537417667115323237157
412,1.7469643580488333013663679710076
413,1.7474524903694400636261349132712
414,1.7479394423546827867458306528623
415,1.7484252197021410271868754353224
416,1.7489098280682526165417735756579
417,1.7493932730687095212035956154583
418,1.7498755602788472729957092753846
419,1.7503566952340322492533040581183
420,1.7508366834300417842579931397553
421,1.7513155303234410641886354289715
422,1.7517932413319560871700163116509
423,1.7522698218348405245388451870648
424,1.7527452771732400970304641722932
425,1.7532196126505508452250933411502
426,1.7536928335327749010721602636940
427,1.7541649450488712451004967150518
428,1.7546359523911014629799586829226
429,1.7551058607153744137995121469404
430,1.7555746751415826721445067850614
431,1.7560424007539382476039674101615
432,1.7565090426013047311983453021242
433,1.7569746056975212066006405140276
434,1.7574390950217290240632614939663
435,1.7579025155186892607000084636563
436,1.7583648720990987680877134955258
437,1.7588261696399029685314459662492
438,1.7592864129846043820307207748571
439,1.7597456069435675652246411324844
440,1.7602037562943215335016182266751
441,1.7606608657818568260988817296452
442,1.7611169401189207778097779420668
443,1.7615719839863106449652766449792
444,1.7620260020331592050315658172467
445,1.7624789988772221604524841395509
446,1.7629309791051583710558956632132
447,1.7633819472728100841616886739842
448,1.7638319079054763805614538235445
449,1.7642808654981876768430117573060
450,1.7647288245159734364683033641043
451,1.7651757893941305926664223880711
452,1.7656217645384855244565393370184
453,1.7660667543256553288389541220127
454,1.7665107631033047780687585933666
455,1.7669537951904025858499341181321
456,1.7673958548774722794135430860313
457,1.7678369464268423731515618011483
458,1.7682770740728922396665573622095
459,1.7687162420222961921256112096421
460,1.7691544544542654202242274590877
461,1.7695917155207856294477385469180
462,1.7700280293468535966425284278384
463,1.7704634000307112456296739533990
464,1.7708978316440754037281077103149
465,1.7713313282323672078835028350361
466,1.7717638938149382910599746893096
467,1.7721955323852930293709117153301
468,1.7726262479113118655487198332153
469,1.7730560443354681854098518013028
470,1.7734849255750462718137516411351
471,1.7739128955223546031809047165446
472,1.7743399580449387941391230718473
473,1.7747661169857895291575458513076
474,1.7751913761635529931184101888932
475,1.7756157393727327215375286693591
476,1.7760392103838953841939659155446
477,1.7764617929438708351201380752746
478,1.7768834907759511048946442345054
479,1.7773043075800872245752020295307
480,1.7777242470330842758049440337305
481,1.7781433127887932179188104955620
482,1.7785615084783030607877118260041
483,1.7789788377101287633472157092676
484,1.7793953040703976775148559998806
485,1.7798109111230360143199926531922
486,1.7802256624099499169865912026252
487,1.7806395614512079896972953865408
488,1.7810526117452198784702148347148
489,1.7814648167689141321924169722442
490,1.7818761799779132067974409123294
491,1.7822867048067077467292529412863
492,1.7826963946688287317369701755299
493,1.7831052529570174638640022292373
494,1.7835132830433944885241292261630
495,1.7839204882796256420105936991042
496,1.7843268719970884697066657989633
497,1.7847324375070347003637146264927
498,1.7851371881007527215427667424324
499,1.7855411270497275533804395838147
500,1.785944257605800450988405370281
501,1.786346583001323881331908656745
502,1.786748106449319329571053639845
503,1.787148831143629402790513391396
504,1.787548760259072074751064192674
505,1.787947896951589918919073782338
506,1.788346244358400059649863438084
507,1.788743805598142689335067548124
508,1.789140583771027791252758172589
509,1.789536581958978298785898004232
510,1.789931803225775744018154335091
511,1.790326250617201626551768165573
512,1.790719927161178402511095615888
513,1.791112835867908709234315045240
514,1.791504979730013501881554707154
515,1.791896361722669476023338880631
516,1.792286984803743986363085618950
517,1.792676851913928536149388042634
518,1.793065965976872622481476209507
519,1.793454329899314719268831152996
520,1.793841946571213254665940023583
521,1.794228818865874378028268691765
522,1.794614949640080792407995558022
523,1.795000341734218089564661937734
