Eigenstate,Potential Energy
1,0.500000000031163796942840898561829777
2,0.64623093785453557471858786544029289
3,0.73633761030250779483082542550115917
4,0.79966527905882883827251814452796241
5,0.8480465774415678277408814264629083
6,0.8870660002062878830656115056420869
7,0.9197208287915798650989228188120253
8,0.9477838495746154491498307598299306
9,0.9723835615618090974687335071606696
10,0.9942802189018211842247254292943263
11,1.0140093917357531521996275517496074
12,1.0319621753682822230326603102641289
13,1.0484326998652548714824140895474625
14,1.0636476629098493179539894366780723
15,1.0777854456167609947392374150000902
16,1.090988917402648043158448345391139
17,1.103374269447636029217731419752760
18,1.115037265701517748897834020030416
19,1.126057765987731148913837792888812
20,1.136503063637296028547831093372228
21,1.146430391570511434074298300208994
22,1.155888833455695969582306480721198
23,1.164920801645712597392182885209042
24,1.173563194578390916057584947420854
25,1.181848313572453649757511636105586
26,1.189804596635104479971654944281737
27,1.197457211424603948748087739021418
28,1.204828538609309353457432336892190
29,1.211938569069626731208506882523422
30,1.218805232739835461644412045908002
31,1.225444672740807516643411837697232
32,1.231871475376743800642069015992336
33,1.238098864259402221114518082541866
34,1.244138865072745862556000016511105
35,1.250002446151744571609064259125818
36,1.255699639015584382425164092497371
37,1.261239642191454662849609172086498
38,1.266630911034664118891986701100759
39,1.271881235752988145442103670892773
40,1.276997809447329227661493360940354
41,1.281987287664021823773456128374808
42,1.286855840699120558481817456112022
43,1.291609199688524211343539873313531
44,1.296252697349693968926310469341182
45,1.300791304103154840594310062133778
46,1.305229660188832855180040862914449
47,1.309572104298804043475835328666352
48,1.313822699170444847236962785606825
49,1.317985254519311051497257707692625
50,1.32206334763694962334974874029235
51,1.32606034193338087787639509323023
52,1.32997940366564317761513795724305
53,1.33382351706134225340946038647413
54,1.33759549801858610303210093132482
55,1.34129800654021093146489195677248
56,1.34493355804012902659343729383896
57,1.34850453364243049895792745715124
58,1.35201318957907362791191881521396
59,1.35546166577924460926685836182537
60,1.35885199373244299179902524778515
61,1.36218610369778486249181821027343
62,1.36546583132371483527369765752237
63,1.36869292373507600899213872578662
64,1.37186904513817458044250861281724
65,1.37499578198894095829844959421109
66,1.37807464776444188473670349229076
67,1.38110708737373578022386892798496
68,1.38409448124030736612437163805709
69,1.38703814908500494906242264283599
70,1.38993935343547548270688905263672
71,1.39279930288549381891719666263176
72,1.39561915512528431780855368986832
73,1.39840001976187997989160767911888
74,1.40114296094674541488884833180425
75,1.40384899982625886072726263133909
76,1.40651911682919890945148344046920
77,1.40915425380407919838369477896584
78,1.41175531601800852667638623681620
79,1.41432317402770703741181850818309
80,1.41685866543237097975764417292274
81,1.41936259651722922421157455662356
82,1.42183574379587325341443555589531
83,1.42427885545875361722129992575176
84,1.42669265273461154900427634512215
85,1.42907783117105516398684440035155
86,1.43143506183997379502025367775736
87,1.43376499247302655041271966061844
88,1.43606824853201780068635572707319
89,1.43834543421858879897529722898230
90,1.44059713342731142304921657212058
91,1.44282391064594857489571780349433
92,1.44502631180635747625590574116020
93,1.44720486508924984345187727025283
94,1.44936008168577999610669126802325
95,1.45149245651871080032842095285979
96,1.45360246892570552481337184625842
97,1.45569058330710934621407045005387
98,1.45775724974041136582273807415215
99,1.45980290456342452743203567167967
100,1.46182797092807448581858746152834
101,1.46383285932655917114048829306185
102,1.46581796809151521981879314343430
103,1.46778368387171952886012645845265
104,1.46973038208474692586724087206344
105,1.47165842734791187322727258269324
106,1.47356817388873136072388348918423
107,1.47545996593606805886398351911610
108,1.47733413809303356565535870832561
109,1.47919101569266298603740553893154
110,1.48103091513730966304203422714362
111,1.48285414422264301856336533963300
112,1.48466100244708302798132815872934
113,1.48645178130744931709018192056800
114,1.48822676458155411202669628967718
115,1.48998622859842782439010703592392
116,1.49173044249681772209776563181078
117,1.49345966847256842351362822038949
118,1.49517416201545192128121900909765
119,1.49687417213598112857628807199574
120,1.49855994158271509825954594879674
121,1.50023170705052579816554354345506
122,1.50188969938027741263101456742482
123,1.50353414375033694743398870251055
124,1.50516525986031723550633716794611
125,1.50678326210742387451934384284683
126,1.50838835975576243014425898862063
127,1.50998075709894166090347145189592
128,1.51156065361628593333806966494070
129,1.51312824412295792297934943322899
130,1.51468371891427431474467803260928
131,1.51622726390448181225999571084624
132,1.51775906076024578841054651195843
133,1.51927928702909212783721389719611
134,1.52078811626303153613737256507012
135,1.52228571813757748218636268578966
136,1.52377225856636525246543125979324
137,1.52524789981156628833857670369112
138,1.52671280059027836522981004446366
139,1.52816711617707006674707393278001
140,1.52961099850284256083055546550129
141,1.53104459625016712751328268879586
142,1.53246805494524881461485046928757
143,1.53388151704665794751973406862380
144,1.53528512203096403955484394599821
145,1.53667900647540246172160663026658
146,1.53806330413769636178729009022598
147,1.53943814603314811977402561441437
148,1.54080366050911566885070688873995
149,1.54215997331697548255881113785676
150,1.54350720768167586922576724369191
151,1.54484548436897648779601566295991
152,1.54617492175046438422495025620298
153,1.54749563586643549810455995155686
154,1.54880774048672553873734876452680
155,1.55011134716956846662555528603791
156,1.55140656531856044671259237359994
157,1.55269350223780031995337188311529
158,1.55397226318527841128806127212559
159,1.5552429514245773468256234158457
160,1.5565056682749512177477693365203
161,1.5577605131598415870253178159247
162,1.5590075836538898000193483885875
163,1.5602469755285004522372813097026
164,1.5614787827960106508100935641435
165,1.5627030977525136698791882700051
166,1.5639200110193875154525593541772
167,1.5651296115835756320208564510678
168,1.5663319868366624398177937622443
169,1.5675272226127887647864091214057
170,1.5687154032254469043381100531055
171,1.5698966115031955233359741324862
172,1.5710709288243322469315422492795
173,1.5722384351505593525565690994800
174,1.5733992090596784045549076840620
175,1.5745533277773478163584276953948
176,1.5757008672079330465307577240844
177,1.5768419019644826891873003341219
178,1.5779765053978596131586525358505
179,1.5791047496250535948141565813336
180,1.5802267055567063909154634838055
181,1.5813424429238719000571051335201
182,1.5824520303040391080503240113704
183,1.5835555351464408664949841324026
184,1.5846530237966727460463357057175
185,1.5857445615206437724707821601474
186,1.5868302125278800140804274423019
187,1.5879100399942048210146951002283
188,1.5889841060838111526535410871704
189,1.5900524719707497242205413609163
190,1.5911151978598486236206461277069
191,1.5921723430070836210312824488108
192,1.5932239657394155534160418031072
193,1.5942701234741130877744204626504
194,1.5953108727375742038752714306107
195,1.5963462691836643287971055641140
196,1.5973763676115848151390591547526
197,1.5984012219832861381869113410926
198,1.5994208854404399739763565170530
199,1.6004354103209829920703425480325
200,1.6014448481752463032123971217678
201,1.6024492497816815382360046270831
202,1.6034486651621969343426711324491
203,1.6044431435971140834316264140090
204,1.6054327336397569573440845800581
205,1.6064174831306831753351857929242
206,1.6073974392115705324718312957144
207,1.6083726483387646595830992052915
208,1.6093431562965020361691469436201
209,1.6103090082098140990974123917695
210,1.6112702485571239426864993486683
211,1.6122269211825429691353300650484
212,1.6131790693078777164210224354235
213,1.6141267355443512415548335743360
214,1.6150699619040540348808398217768
215,1.6160087898111236716435371297890
216,1.6169432601126671552761744982552
217,1.6178734130894299114465562324837
218,1.6187992884662204053045794853744
219,1.6197209254220936548619222769502
220,1.6206383626003061486256607114248
221,1.6215516381180400697699225903151
222,1.6224607895759140242050854882298
223,1.6233658540672738333695410461232
224,1.6242668681872784510361947366925
225,1.6251638680417835606700147660289
226,1.6260568892560263912710423381134
227,1.6269459669831203945430365089160
228,1.6278311359123615935807360221215
229,1.6287124302773537552124901991860
230,1.6295898838639570722283383180590
231,1.6304635300180621447494237444249
232,1.6313334016531996696450406544849
233,1.6321995312579808234870016038440
234,1.6330619509033844850925466484435
235,1.6339206922498844687406443469295
236,1.6347757865544264668150944736535
237,1.6356272646772583219859785603999
238,1.6364751570886153599247595946088
239,1.6373194938752662181171165024362
240,1.6381603047469213241738344594958
241,1.6389976190425083049713880140228
242,1.6398314657363171825547962444294
243,1.6406618734440193875583508111306
244,1.6414888704285622783618182687591
245,1.6423124846059435390746295425749
246,1.6431327435508679748968616606841
247,1.6439496745022880866234894196864
248,1.6447633043688360048270611890146
249,1.6455736597341417522149079017599
250,1.6463807668620482182624889639381
251,1.6471846517017207455300417866248
252,1.6479853398926541255583759158203
253,1.6487828567695820759422189075552
254,1.6495772273672888548340995628248
255,1.6503684764253268923031872310358
256,1.6511566283926405233122042253091
257,1.6519417074321022130515509052522
258,1.6527237374249577186853629132309
259,1.6535027419751869903554097317251
260,1.6542787444137811971428274265304
261,1.6550517678029361910405341056176
262,1.6558218349401671336635623200987
263,1.6565889683623431355800905127760
264,1.6573531903496473584162677402879
265,1.6581145229294611042629952828075
266,1.6588729878801740594172162255149
267,1.6596286067349239049901582830138
268,1.6603814007852653273818565963158
269,1.6611313910847726978211104390757
270,1.6618785984525721443956252823203
271,1.6626230434768122998088737923796
272,1.6633647465180677037077517380051
273,1.6641037277126823019753879755168
274,1.6648400069760502512866285545873
275,1.6655736040058379037853581902135
276,1.6663045382851452495157810522254
277,1.6670328290856142999010928650051
278,1.6677584954704761661968950805211
279,1.6684815562975483353672067574447
280,1.6692020302221742362326585577334
281,1.6699199357001129846972700359758
282,1.6706352909903768043054540337919
283,1.6713481141580193345593302398583
284,1.6720584230768719835147794912246
285,1.6727662354322351319008294496272
286,1.6734715687235202134904463348253
287,1.6741744402668477309981182743019
288,1.6748748671975976092634189657046
289,1.6755728664729165337684152603414
290,1.6762684548741830069998501021431
291,1.6769616490094279635801496437045
292,1.6776524653157138290571985905346
293,1.6783409200614759281111564141285
294,1.6790270293488212790771273064847
295,1.6797108091157868619113624065024
296,1.6803922751385649451454890207913
297,1.6810714430336854035370701276205
298,1.6817483282601643431514045025808
299,1.6824229461216158367137444724611
300,1.6830953117683285198190286552905
301,1.6837654401993074594181007432757
302,1.6844333462642833874941697528980
303,1.6850990446656864730399490093971
304,1.6857625499605882098457569374771
305,1.6864238765626128486068694371009
306,1.6870830387438176365503266982159
307,1.6877400506365390465368764257375
308,1.6883949262352124740670161775454
309,1.6890476793981614914588230332941
310,1.6896983238493569943445681447250
311,1.6903468731801498353908882512016
312,1.6909933408509744583764911738243
313,1.6916377401930249253774612505078
314,1.6922800844099051413357914710613
315,1.6929203865792525956553443407608
316,1.6935586596543369964695179226240
317,1.6941949164656313361869455364560
318,1.6948291697223607395623119352910
319,1.6954614320140262358559931840773
320,1.6960917158119034563428960728074
321,1.6967200334705201761067338724080
322,1.6973463972291088145527396029083
323,1.6979708192130374086801956952469
324,1.6985933114352180362564326805673
325,1.6992138857974944508757516637969
326,1.6998325540920071661316949808520
327,1.7004493280025388096609035541042
328,1.7010642191058369362551319997445
329,1.7016772388729192749027679447949
330,1.7022883986703578414281405925037
331,1.7028977097615433553072204930765
332,1.7035051833079310218864333557075
333,1.7041108303702680585445694335212
334,1.7047146619098011488061050095324
335,1.7053166887894681393232097352103
336,1.7059169217750700377628344540913
337,1.7065153715364261838295975778019
338,1.7071120486485136522617073192543
339,1.7077069635925869522910462581683
340,1.7083001267572841148934546588318
341,1.7088915484397148813912972363231
342,1.7094812388465334905430381494668
343,1.7100692080949957018939636919672
344,1.7106554662140000490802437971141
345,1.7112400231451151424058292218528
346,1.7118228887435904954722341882425
347,1.7124040727793544412052630076090
348,1.7129835849379959489881307191427
349,1.7135614348217338878107793373907
350,1.7141376319503712777621661654700
351,1.7147121857622366174545099646896
352,1.7152851056151119697310922943281
353,1.7158564007871470900219982141028
354,1.7164260804777610118104967808898
355,1.7169941538085314544809342603932
356,1.7175606298240702633235973914756
357,1.7181255174928881207288652760389
358,1.7186888257082477725649652985353
359,1.7192505632890015148727624783409
360,1.7198107389804218787908124746669
361,1.7203693614550172585745862676273
362,1.7209264393133389643049930318846
363,1.7214819810847742948950119916978
364,1.7220359952283306553837455997552
365,1.7225884901334089548820178940795
366,1.7231394741205651628354484894363
367,1.7236889554422629156122668943404
368,1.7242369422836139621429820324510
369,1.7247834427631110811546144326108
370,1.7253284649333491831732602695444
371,1.7258720167817374506030424078128
372,1.7264141062312014723590148726207
373,1.7269547411408753397695968280357
374,1.7274939293067880122268811798056
375,1.7280316784625346441546548164247
376,1.7285679962799443295096286933040
377,1.7291028903697360530269900386548
378,1.7296363682821660156211297156554
379,1.7301684375076681737444424014828
380,1.7306991054774847494691416596658
381,1.7312283795642895867286814604710
382,1.7317562670828014718892316890881
383,1.7322827752903920933136837869144
384,1.7328079113876836036197650904572
385,1.7333316825191394058876235723110
386,1.7338540957736488224699129365002
387,1.7343751581851013957407255103446
388,1.7348948767329547575818186440981
389,1.7354132583427967422897882412800
390,1.7359303098868989320096125405850
391,1.7364460381847619516325129572790
392,1.7369604500036561215331848349641
393,1.7374735520591549416294874947108
394,1.7379853510156599878589033133998
395,1.7384958534869200779409797507824
396,1.7390050660365443572900210465378
397,1.7395129951785089349823332933809
398,1.7400196473776570779093068200500
399,1.7405250290501915289031351198325
400,1.7410291465641632487900634468373
401,1.7415320062399526312866901066341
402,1.7420336143507439359524633450173
403,1.7425339771229957599346632212849
404,1.7430331007369054415921096520155
405,1.7435309913268648614395366865410
406,1.7440276549819137494438056167440
407,1.7445230977461876153891362500802
408,1.7450173256193578055022741531164
409,1.7455103445570665464113282614349
410,1.7460021604713594909146129141956
411,1.7464927792311100255741051874830
412,1.7469822066624389227207037645619
413,1.7474704485491304159284268816505
414,1.7479575106330411228013607210301
415,1.7484433986145060990330449562260
416,1.7489281181527384533705388436489
417,1.7494116748662253719677657449279
418,1.7498940743331177153632176786752
419,1.7503753220916174665929356240153
420,1.7508554236403580123591253575236
421,1.7513343844387812094380591644322
422,1.7518122099075105179285286591580
423,1.7522889054287180374808537398818
424,1.7527644763464890602306903243244
425,1.7532389279671805197972217916790
426,1.7537122655597769431853688857611
427,1.7541844943562413902218096720717
428,1.7546556195518613942116169120596
429,1.7551256463055938162029920783322
430,1.7555945797404014749651576064207
431,1.7560624249435890563327233308778
432,1.7565291869671354514305459632614
433,1.7569948708280178616745223257261
434,1.7574594815085387684849917651659
435,1.7579230239566435913858809053050
436,1.7583855030862369354782224918334
437,1.7588469237774955896570404972815
438,1.7593072908771772576333533829844
439,1.7597666091989257030654770207904
440,1.7602248835235733800096629134041
441,1.7606821185994387085427760092762
442,1.7611383191426215591999880109158
443,1.7615934898372965939217296921904
444,1.7620476353359990828782337960520
445,1.7625007602599125278283011435998
446,1.7629528691991491163587149571512
447,1.7634039667130301761711170288558
448,1.7638540573303598476143576733730
449,1.7643031455496998149647062749399
450,1.7647512358396372488920726759863
451,1.7651983326390534632037756128667
452,1.7656444403573861272108015272804
453,1.7660895633748907767857495191160
454,1.7665337060428980130580672853509
455,1.7669768726840700126158348012122
456,1.7674190675926516462099042378996
457,1.7678602950347209016644868247883
458,1.7683005592484350068875220788477
459,1.7687398644442747669021071008721
460,1.7691782148052867572394245677297
461,1.7696156144873212234143766872656
462,1.7700520676192688995316122553280
463,1.7704875783032953497897894343051
464,1.7709221506150709937868831796535
465,1.7713557886040007843594889049266
466,1.7717884962934506686505070483441
467,1.7722202776809701129173384911192
468,1.7726511367385157067208123235593
469,1.7730810774126683231882816955687
470,1.7735101036248513598882180582156
471,1.7739382192715443274229981619195
472,1.7743654282244960833475163945744
473,1.7747917343309330623151234368844
474,1.7752171414137700064415499455981
475,1.7756416532718121186407895884791
476,1.7760652736799611527355111691487
477,1.7764880063894157733364785835076
478,1.7769098551278708614780613794070
479,1.7773308235997146553905176411905
480,1.7777509154862241209886144569484
481,1.7781701344457571029491907082530
482,1.7785884841139448251611963716461
483,1.7790059681038801205438740106217
484,1.7794225900063042099831118901669
485,1.7798383533897935072606516112111
486,1.7802532618009410347642783236720
487,1.7806673187645392987595498223354
488,1.7810805277837592207028189980872
489,1.7814928923403283526941887947651
490,1.7819044158947062401084590245569
491,1.7823151018862590655999547397038
492,1.7827249537334321625804195541151
493,1.7831339748339203730876002364646
494,1.7835421685648373439941368853439
495,1.7839495382828819539578170253213
496,1.7843560873245051154412321114660
497,1.7847618190060726372228569323471
498,1.7851667366240280925569567033547
499,1.7855708434550531902024422790562
500,1.785974142756227778690096384930
501,1.786376637765185229738028500895
502,1.786778331700270655859616823074
503,1.787179227760693430155313116291
504,1.787579329126681851985826706856
505,1.787978638959632805848899800889
506,1.788377160402262143403631993034
507,1.788774896578753636518504715117
508,1.789171850594906141152891143953
509,1.789568025538277202807421945268
510,1.789963424478329156622559882827
511,1.790358050466570953043482730735
512,1.790751906536699609088630225956
513,1.791144995704739900797828807671
514,1.791537320969182973166013352054
515,1.791928885311124241701975503157
516,1.792319691694398795845388839144
517,1.792709743065715378876130576566
518,1.793099042354790729601890559917
519,1.793487592474481067665546185573
520,1.793875396320913579377476510533
521,1.794262456773614699203913114979
522,1.794648776695639463015888604538
523,1.795034358933698370161036514953
