Eigenstate,Potential Energy
1,0.500000000277362675083191860161881448
2,0.64623093946161116280377519142991825
3,0.73633761502324300107711609601953670
4,0.79966528889181050919399387029434344
5,0.8480465944748103427984284247438253
6,0.8870660265646692518881616878868945
7,0.9197208666175243196931716920644089
8,0.9477839010200834554780071479135066
9,0.9723836287846151472097325173810548
10,0.9942803040638040513341249791146146
11,1.0140094970018182772688143775479898
12,1.0319623029058885933740249302401076
13,1.0484328518441439600531168797065143
14,1.0636478415019134024073748149122337
15,1.0777856529959956379437315515596558
16,1.090989155745157517022164805549161
17,1.103374540931673255735647473371272
18,1.115037572507547468542155825765246
19,1.126058110298509169396190095416061
20,1.136503447637959898043055251077629
21,1.146430817448679428145506274382920
22,1.155889303401572266420367600626737
23,1.164921317852197160198525151123060
24,1.173563759241193032120395180897036
25,1.181848928890208369657588108913023
26,1.189805264809491404614014642659020
27,1.197457934660467956299037070666059
28,1.204829319114782961918642805594602
29,1.211939409056253867839314280404130
30,1.218806134422696466137876034434094
31,1.225445638338645246563398973586990
32,1.231872507112090739060059667136753
33,1.238099964358708510387961733918170
34,1.244140035766508206704827667291632
35,1.250003689674635964165547429751835
36,1.255700957606584627961600137135176
37,1.261241038093981669368621672763603
38,1.266632386496705945440667866068455
39,1.271882793027235795093199387567471
40,1.276999450791310180699771085597663
41,1.281989015340234309766773748864998
42,1.286857656975168569083985275300540
43,1.291611106837253258307921622036035
44,1.296254697649327594012030318674459
45,1.300793399837431885905942138285454
46,1.305231853647145504062602825051756
47,1.309574397776336643441742305117348
48,1.313825094968313527573019441451413
49,1.317987754944704149220517781455481
50,1.32206595500326893207834646112818
51,1.32606305856038373497776904494502
52,1.32998223187958540570595214662954
53,1.33382645919512197292454653287823
54,1.33759855641188843316571098027853
55,1.34130118353965359732578872587069
56,1.34493685599940889091466973673798
57,1.34850795492247103716856437296322
58,1.35201673654817336581908666934744
59,1.35546534081322654301349124499644
60,1.35885579921480501016371039406515
61,1.36219004201985119198270012932043
62,1.36546990488478852884295696866890
63,1.36869713494259249956217626728173
64,1.37187339640785632079303276937214
65,1.37500027574495316921737493820357
66,1.37807928643954943368609532414601
67,1.38111187340946121311980493599254
68,1.38409941708709011517503527898987
69,1.38704323720236173995621798691056
70,1.38994459629216196478702283096163
71,1.39280470295966744233039672040675
72,1.39562471490466848196447812321657
73,1.39840574174392947792588418064143
74,1.40114884763881319917917337051460
75,1.40385505374576415487555027778519
76,1.40652534050379669251090361289511
77,1.40916064977183108748264006963556
78,1.41176188682755508456899688961075
79,1.41432992223844153186894805423356
80,1.41686559361461462210128473440634
81,1.41936970725240791469428595536522
82,1.42184303967669586154818796724390
83,1.42428633908939182557197551858198
84,1.42670032673088128938686849477878
85,1.42908569816059967542371196339929
86,1.43144312446244833325920245727164
87,1.43377325338028477924625604575318
88,1.43607671038829989576516075429520
89,1.43835409970071129527082877797309
90,1.44060600522485883759047921077264
91,1.44283299146146683688647130269680
92,1.44503560435554919716762853043051
93,1.44721437210117146018891391661766
94,1.44936980590304082084977409301481
95,1.45150240069767401118459040785527
96,1.45361263583669113193137196051392
97,1.45570097573459916856882238316962
98,1.45776787048325605442536134925783
99,1.45981375643505267128983674048417
100,1.46183905675670383754627515938968
101,1.46384418195541002971533489006980
102,1.46582953037902600857504910953479
103,1.46779548869176460743330169677959
104,1.46974243232685667542972854750588
105,1.47167072591749509499716833634167
106,1.47358072370730002838631922058681
107,1.47547276994146446621449685233687
108,1.47734719923965991145918119887307
109,1.47920433695171343879869113242271
110,1.48104449949700494909094094637093
111,1.48286799468846757759972102793881
112,1.48467512204202478095909122234003
113,1.48646617307224209208889713005018
114,1.48824143157492277453504078170750
115,1.49000117389733615922205206500096
116,1.49174566919671911497501311983383
117,1.49347517968765939117804147934601
118,1.49518996087892853985078691893671
119,1.49689026180029841072454571152316
120,1.49857632521984937068568147373992
121,1.50024838785224013172766837413894
122,1.50190668055839015844233129857015
123,1.50355142853699343316600244370129
124,1.50518285150826467711171297605286
125,1.50680116389028955957590977985199
126,1.50840657496833523003143087652601
127,1.50999928905745693005609301900893
128,1.51157950565871385487865368437020
129,1.51314741960929536110903851750289
130,1.51470322122684023537714529565548
131,1.51624709644821633451049275646252
132,1.51777922696301293070861285819238
133,1.51929979034198631360702738550601
134,1.52080896016068792519995912809202
135,1.52230690611848619526989938634361
136,1.52379379415318955747050730007394
137,1.52526978655146481829789793235677
138,1.52673504205523143921848898938469
139,1.52818971596421018635103361514911
140,1.52963396023478915616101044025370
141,1.53106792357536562816526318304318
142,1.53249175153831412241390309199875
143,1.53390558660872238937834012185139
144,1.53530956829002988027066943837491
145,1.53670383318669905809610365067034
146,1.53808851508404204102716845574900
147,1.53946374502531686675538912247255
148,1.54082965138620870848252514518980
149,1.54218635994679784517926955406318
150,1.54353399396111802869670554960597
151,1.54487267422440116374081880517761
152,1.54620251913809860166837580013511
153,1.54752364477276799963594406300927
154,1.54883616492890964622132149014352
155,1.55014019119583049143351255256445
156,1.55143583300861374944611021713317
157,1.55272319770326512266957684069794
158,1.55400239057010746733318058120872
159,1.5552735149054875755206172474072
160,1.5565366720618614133672329941185
161,1.5577919614963163137538044016634
162,1.5590394808175895868718078613850
163,1.5602793258316384042834838734523
164,1.5615115905858155954595620490189
165,1.5627363674116999594529957734645
166,1.5639537469666316097998540281633
167,1.5651638182739995875337535899770
168,1.5663666687623244338564766671319
169,1.5675623843031807872467700743846
170,1.5687510492479997508885704856815
171,1.5699327464637912277075149016156
172,1.5711075573678240925755257453322
173,1.5722755619612996069896801650845
174,1.5734368388620539227893752932272
175,1.5745914653363236629703171309920
176,1.5757395173296042891558095195267
177,1.5768810694966345195499380106382
178,1.5780161952305359551401263766025
179,1.5791449666911343625530030174018
180,1.5802674548324935635103349449489
181,1.5813837294296845831069995909925
182,1.5824938591048177560290460058528
183,1.5835979113523608438142002426929
184,1.5846959525637674086182503199107
185,1.5857880480514372556419430396294
186,1.5868742620720299169686758500933
187,1.5879546578491549815585455924512
188,1.5890292975954547120643833054752
189,1.5900982425341026840286253665121
190,1.5911615529197341031218603174261
191,1.5922192880588270276814513785465
192,1.5932715063295508835832580113159
193,1.5943182652011005802523806760871
194,1.5953596212525295736878117392323
195,1.5963956301910998140860148007552
196,1.5974263468701622753314167484241
197,1.5984518253065824471880364070912
198,1.5994721186977249578308014782509
199,1.6004872794380101663907271263756
200,1.6014973591350566716838138952795
201,1.6025024086254207196797991349710
202,1.6035024779899458921727551967331
203,1.6044976165687337378480123345277
204,1.6054878729757469673134194539182
205,1.6064732951130551842846631144288
206,1.6074539301847361787032214343688
207,1.6084298247104386596803245564785
208,1.6094010245386206571477327221097
209,1.6103675748594693427289488929496
210,1.6113295202175137733286753139369
211,1.6122869045239379245198627545846
212,1.6132397710686042492062737515658
213,1.6141881625317921480388343553877
214,1.6151321209956663361030686546049
215,1.6160716879554743211939874836241
216,1.6170069043304869574779870777077
217,1.6179378104746860431958004826767
218,1.6188644461872079447476592052464
219,1.6197868507225465302783742797046
220,1.6207050628005279313595479337527
221,1.6216191206160550458460207369874
222,1.6225290618486389903689044689599
223,1.6234349236717110747216758562532
224,1.6243367427617303692028230097580
225,1.6252345553070894335729760178710
226,1.6261283970168217580416224744730
227,1.6270183031291195719804604666591
228,1.6279043084196638437944598203896
229,1.6287864472097736377346941521711
230,1.6296647533743795279336846348056
231,1.6305392603498228734029254183637
232,1.6314100011414913778212265201883
233,1.6322770083312859349876878595562
234,1.6331403140849349218431234370078
235,1.6339999501591491264892731297582
236,1.6348559479086270268100054550083
237,1.6357083382929140571863070002841
238,1.6365571518831176122119251198743
239,1.6374024188684832414600649755009
240,1.6382441690628342077658397790366
241,1.6390824319108787100219279893769
242,1.6399172364943876467076763043955
243,1.6407486115382469718544068351272
244,1.6415765854163863532685338446844
245,1.6424011861575885284086327392181
246,1.6432224414511818994999718205951
247,1.6440403786526177734110904294960
248,1.6448550247889398513866585327521
249,1.6456664065641409624746016707528
250,1.6464745503644174509301816904395
251,1.6472794822633191440578348626739
252,1.6480812280267977263155983190279
253,1.6488798131181586201603315696226
254,1.6496752627029160597230745866677
255,1.6504676016535552675600214786095
256,1.6512568545542018511412429372074
257,1.6520430457052048427528214042482
258,1.6528261991276298609490635975138
259,1.6536063385676692316361261173015
260,1.6543834875009694909400271289352
261,1.6551576691368766206060128055516
262,1.6559289064226037796711613768015
263,1.6566972220473204226513234025682
264,1.6574626384461682961740144007030
265,1.6582251778042028818157726605932
266,1.6589848620602624969429647644078
267,1.6597417129107683124320885563937
268,1.6604957518134553682654112254862
269,1.6612469999910389059089127724910
270,1.6619954784348117923805423000255
271,1.6627412079081823726110552683030
272,1.6634842089501467842101548092515
273,1.6642245018787032343290013249871
274,1.6649621067942055063108232174146
275,1.6656970435826596325513907579340
276,1.6664293319189620750540466216889
277,1.6671589912700869631791957978651
278,1.6678860408982142112023405586463
279,1.6686104998638100893758052250057
280,1.6693323870286524152837502231403
281,1.6700517210588083310317023585625
282,1.6707685204275622421611199286432
283,1.6714828034182972134233124627184
284,1.6721945881273270637837541141655
285,1.6729038924666860570954112143033
286,1.6736107341668723057889241640164
287,1.6743151307795500431192199956506
288,1.6750170996802072657341437362690
289,1.6757166580707734985689854972665
290,1.6764138229821985226504866992110
291,1.6771086112769900191015568813114
292,1.6778010396517131310946737359309
293,1.6784911246394559710689324379496
294,1.6791788826122562365896421757915
295,1.6798643297834911535667616631608
296,1.6805474822102384693676079537348
297,1.6812283557955985701393838201068
298,1.6819069662909871875518707674230
299,1.6825833292983956524617653550173
300,1.6832574602726206071777356449888
301,1.6839293745234637556190031426461
302,1.6845990872179039192054702901623
303,1.6852666133822387539550326568303
304,1.6859319679041998964422131445769
305,1.6865951655350431654048385717421
306,1.6872562208916132890412816815604
307,1.6879151484583805557770129489496
308,1.6885719625894570921363861263862
309,1.6892266775105890921056071298396
310,1.6898793073211255785959006439098
311,1.6905298659959675482874138275885
312,1.6911783673874952808001398611270
313,1.6918248252274754847539900424613
314,1.6924692531289503774851745212935
315,1.6931116645881083237892811346884
316,1.6937520729861377290800174742599
317,1.6943904915910620599659678427960
318,1.6950269335595616933946940543026
319,1.6956614119387801020746662134774
320,1.6962939396681147607485965586262
321,1.6969245295809970935945890349455
322,1.6975531944066579975776384574990
323,1.6981799467718828961899742129214
324,1.6988047992027557622991870436830
325,1.6994277641263943558877321597401
326,1.7000488538726754213013715704522
327,1.7006680806759531968806255790170
328,1.7012854566767689845458184776338
329,1.7019009939235573401880309438337
330,1.7025147043743459317677202346780
331,1.7031265998984511497854731777526
332,1.7037366922781712100900227769286
333,1.7043449932104778408204079395856
334,1.7049515143087054872417673048848
335,1.7055562671042431378131382338171
336,1.7061592630482256588221007295293
337,1.7067605135132283824727788501608
338,1.7073600297949669257945105346046
339,1.7079578231139992720613705404212
340,1.7085539046174372248358384106392
341,1.7091482853806640217024552481994
342,1.7097409764090617363932871409572
343,1.7103319886397493003121815840405
344,1.7109213329433323958260821709149
345,1.7115090201256683689191688703220
346,1.7120950609296450381845513551134
347,1.7126794660369784463429129511238
348,1.7132622460700279304980480674827
349,1.7138434115936337095900617604029
350,1.7144229731169762797640076250879
351,1.7150009410954615546127784418918
352,1.7155773259326333897398008648272
353,1.7161521379821148479006523243255
354,1.7167253875495818135772017821224
355,1.7172970848947716474162026539764
356,1.7178672402335275551023381340344
357,1.7184358637398845237268813815611
358,1.7190029655481988431399349917899
359,1.7195685557553199015664562642188
360,1.7201326444228163200953807310984
361,1.7206952415792514931120060098161
362,1.7212563572225185479204334316943
363,1.7218160013222330752936480612526
364,1.7223741838221926519120244192983
365,1.7229309146429056463587215182337
366,1.7234862036841927191732000157767
367,1.7240400608278687398974823228842
368,1.7245924959405070612600023414308
369,1.7251435188762962792722758999646
370,1.7256931394799910596972031372645
371,1.7262413675899661512779589235685
372,1.7267882130413792400724403858651
373,1.7273336856694497741662217784027
374,1.7278777953128657312095254808910
375,1.7284205518173172259637921100627
376,1.7289619650391772049714253408000
377,1.7295020448493304413961551752801
378,1.7300408011371641064526356867818
379,1.7305782438147326081540894045671
380,1.7311143828211051094079784123704
381,1.7316492281269111284569390378189
382,1.7321827897390948145102458233510
383,1.7327150777058970767178047612662
384,1.7332461021220761525106391193966
385,1.7337758731343870762558868914612
386,1.7343044009473388725154958119828
387,1.7348316958292448343178575352797
388,1.7353577681185910112319099051747
389,1.7358826282307464919890296682570
390,1.7364062866650374631421202460878
391,1.7369287540122122122466003612718
392,1.7374500409623297906435087420423
393,1.7379701583131013879364635823892
394,1.7384891169787172901297361121390
395,1.7390069279991995483452875908013
396,1.7395236025503205546580167327988
397,1.7400391519541313061083441884704
398,1.7405535876901474888891322343235
399,1.7410669214072444550702085784976
400,1.7415791649363227383129006087913
401,1.7420903303038028555969901517031
402,1.7426004297460187624144691140632
403,1.7431094757245879707237152394146
404,1.7436174809428386981491941701632
405,1.7441244583633820865444057442394
406,1.7446304212269351811610655105673
407,1.7451353830725014075142706328581
408,1.7456393577590268693634753731018
409,1.7461423594886686630567376192637
410,1.7466444028318250594712455023804
411,1.7471455027540848420332473824722
412,1.7476456746452800245087065824890
413,1.7481449343508434676145014682504
414,1.7486432982056905525714365241378
415,1.7491407830708770750804217258754
416,1.7496374063733060798336000438942
417,1.7501331861487949314341692167863
418,1.7506281410888446971052954313106
419,1.7511222905915024587253068022663
420,1.7516156548167450317481777028990
421,1.7521082547468753255179992572218
422,1.7526001122524793848330576745906
423,1.7530912501645611224263990096105
424,1.7535816923535583624199092669082
425,1.7540714638160295838674635995140
426,1.7545605907699152410306147005626
427,1.7550491007593954189068727876894
428,1.7555370227705118368373690564937
429,1.7560243873588931312165975152458
430,1.7565112267911059151846610471167
431,1.7569975752013961681730753870868
432,1.7574834687658416695171369518594
433,1.7579689458962476670235691261506
434,1.7584540474565031662008876507654
435,1.7589388170045290259706182112765
436,1.7594233010634879906547834531997
437,1.7599075494265352104590734147428
438,1.7603916155001278193712812167377
439,1.7608755566918011961104898675357
440,1.7613594348493894585319399803518
441,1.7618433167599584071567130542318
442,1.7623272747182994638450883158803
443,1.7628113871767516888162838839792
444,1.7632957394904735499814058458527
445,1.7637804247752118724496318536100
446,1.7642655448982077853220605377105
447,1.7647512116273995704108814467612
448,1.7652375479697201887884657604780
449,1.7657246897364390114692983802380
450,1.7662127873825546974561681030398
451,1.7667020081788775576031961468698
452,1.7671925387904087726752226006963
453,1.7676845883541192021677549483637
454,1.7681783921747693682791675131355
455,1.7686742161912273140265341746623
456,1.7691723624109071785851825695478
457,1.7696731755709554871662189089243
458,1.7701770513680871597564975018512
459,1.7706844467140784347783821959736
460,1.7711958926350834759221220040310
461,1.7717120106618257067193813262315
462,1.7722335338878536962052050485042
463,1.7727613343573347437639822109918
464,1.7732964591676035609021237430025
465,1.7738401787756976464105371311956
466,1.7743940527209327722938808121288
467,1.7749600207332636352252033224248
468,1.7755405317392183516363298828027
469,1.7761387310040662877989913446569
470,1.7767587392888267620148526032003
471,1.7774060830286415091392656983606
472,1.7780883831982532357543280146200
473,1.7788165104988569956053501422589
474,1.7796066350843400239022305415748
475,1.7804841306256735097829543368971
476,1.7814917254714507108362791609047
477,1.7827087738736593677015399307296
478,1.7843057695915159584508355987798
479,1.7867499043882641965849611550160
480,1.7921777192630714924944570921584
