Eigenstate,Potential Energy
1,0.500000000044737567688354268298245849
2,0.64623093794313820098317558488355584
3,0.73633761056277142858564732555401454
4,0.79966527960092989161096039951286351
5,0.8480465783806013665215534170883097
6,0.8870660016593655424215880283665660
7,0.9197208308767607504846715451827492
8,0.9477838524104604475441110684038618
9,0.9723835652671737875220499213127611
10,0.9942802235957508726272336003451725
11,1.0140093975374259866163238766661477
12,1.0319621823969768043310842675483443
13,1.0484327082403312036708122650005286
14,1.0636476727507374341993890713536877
15,1.0777854570429542144307827895834566
16,1.090988930533699138183828532963436
17,1.103374284403155282872087140692617
18,1.115037282601172284273270271249946
19,1.126057784951245132018995109589376
20,1.136503084784451488738455097110609
21,1.146430415021149529557340564169504
22,1.155888859329718580076243895325345
23,1.164920830063084161537834768638449
24,1.173563225659140454915021592670347
25,1.181848347436676933922030339913765
26,1.189804633402966309097915036685578
27,1.197457251216340520226490547878415
28,1.204828581545230702696132456439016
29,1.211938615270119230130471594843295
30,1.218805282325364365074057245751535
31,1.225444725831919548545367651457870
32,1.231871532094069773901797340655013
33,1.238098924723659685867988302565770
34,1.244138929404741779090339553914255
35,1.250002514472378004644820705637705
36,1.255699711445849214209005500978058
37,1.261239718852442322974808130483611
38,1.266630992047566329152877469116183
39,1.271881321239099678340463807755359
40,1.276997899528050677434434111275629
41,1.281987382460862389016734591558595
42,1.286855940333700835609479494561970
43,1.291609304282578998261997385830360
44,1.296252807025075078414304548960185
45,1.300791418981833922974343248846222
46,1.305229780392904229945429439137307
47,1.309572229950487539603397719142285
48,1.313822830392088651970856326637186
49,1.317985391433394567436412552958894
50,1.32206349036608633371123166003326
51,1.32606049060032121984108136487328
52,1.32997955839327742369120208076298
53,1.33382367797270340077426259721585
54,1.33759566523685277083468525595895
55,1.34129818018871026609005879552567
56,1.34493373824233961490465645616422
57,1.34850472052198528955056846442874
58,1.35201338325976286042077527486166
59,1.35546186638501875178287073786003
60,1.35885220138741568645978865786701
61,1.36218631852623587931901398437787
62,1.36546605345009303433823543699205
63,1.36869315328400231099454653524051
64,1.37186928223444494580219895475663
65,1.37499602675752937485097049259830
66,1.37807490033050336414300593442056
67,1.38110734786260936320007558356770
68,1.38409474977751913660460787715551
69,1.38703842579627105741100845407718
70,1.38993963844670517809951006888019
71,1.39279959632279249101390231801880
72,1.39561945711495654784422899337063
73,1.39840033043043260131231806010250
74,1.40114328042089058366492571816833
75,1.40384932823291713547636198487916
76,1.40651945429550234150699684887972
77,1.40915460045737443194604117950721
78,1.41175567198585990918661743139758
79,1.41432353943789974028889756239793
80,1.41685904041291412964246301727196
81,1.41936298119635904486257740907851
82,1.42183613830205621840130495923063
83,1.42427925992068961356475742500602
84,1.42669306728123705191161158615584
85,1.42907825593154642283426093711935
86,1.43143549694375003073457637015379
87,1.43376543804975316440645904240042
88,1.43606870471160959550149494437010
89,1.43834590113121321079256085278445
90,1.44059761120339176622090302867347
91,1.44282439941616729866154703781900
92,1.44502681170165943380264475508239
93,1.44720537624084557347879947137013
94,1.44936060422514901706024673824733
95,1.45149299057760491747079371527627
96,1.45360301463615215029084483104750
97,1.45569114080141483229249516190909
98,1.45775781915116435145858158930508
99,1.45980348602349929834885013332892
100,1.46182856457063434826000850658499
101,1.46383346528505983947213546214972
102,1.46581858649970821815278886814860
103,1.46778431486365560687717627314541
104,1.46973102579477948901264260553084
105,1.47165908391070042745840389132382
106,1.47356884343924497198812842933724
107,1.47546064860958882748737470491990
108,1.47733483402516011582350093424355
109,1.47919172501931397055169345730701
110,1.48103163799472728353544803935603
111,1.48285488074739656136154025035709
112,1.48466175277607241579601156711165
113,1.48645254557790867673352777055866
114,1.48822754293105535833632177640066
115,1.48998702116488426055617541538583
116,1.49173124941848765658492532911436
117,1.49346048988805880377201711220610
118,1.49517499806372198444216946722048
119,1.49687502295634606932993779469235
120,1.49856080731484975411308507696761
121,1.50023258783446835228224073152433
122,1.50189059535643311445175970110321
123,1.50353505505948185128468162737706
124,1.50516618664360195739593988579791
125,1.50678420450637736733504307401292
126,1.50838931791229577745183915581185
127,1.50998173115535188956254353146021
128,1.51156164371525984514349948957036
129,1.51312925040757594554188010800558
130,1.51468474152801437182540748849660
131,1.51622830299122321377506967538395
132,1.51776011646427314032426273871960
133,1.51928035949509926216324715151929
134,1.52078920563612546126979630189254
135,1.52228682456328235378393813633361
136,1.52377338219062636511424924363816
137,1.52524904078075408822016869837757
138,1.52671395905119248402353921318334
139,1.52816829227694337699766491244037
140,1.52961219238934525301334621300063
141,1.53104580807141080903181748692754
142,1.53246928484979063096728269427520
143,1.53388276518350472587257439894604
144,1.53528638854957645496452086195914
145,1.53668029152569922624632884453105
146,1.53806460787005843673369500421081
147,1.53943946859842295132527932781795
148,1.54080500205862144732470704639767
149,1.54216133400250542554728524647890
150,1.54350858765550252886717881395803
151,1.54484688378385608243745852469484
152,1.54617634075964115473024698529857
153,1.54749707462364608906814806319126
154,1.54880919914620340486565499396253
155,1.55011282588604830454991938407149
156,1.55140806424728265250011118167609
157,1.55269502153451547258428649199401
158,1.55397380300625178237080044490934
159,1.5552445119265934368227411217760
160,1.5565072496153183189888055269980
161,1.5577621154963963737847493443479
162,1.5590092071450019459404601707058
163,1.5602486203330772753851017678515
164,1.5614804490735017866392751017908
165,1.5627047856629157724052358006928
166,1.5639217207232489869172875010177
167,1.5651313432420013813456915409675
168,1.5663337406113186701412314109962
169,1.5675289986659077903845187693818
170,1.5687172017198319972297861752563
171,1.5698984326022257898774622849161
172,1.5710727726919675347073563029624
173,1.5722403019513451878769512640540
174,1.5734010989587509608727607427022
175,1.5745552409404389139215376847298
176,1.5757028038013751835881282973600
177,1.5768438621552141050712941361000
178,1.5779784893534293835677107001291
179,1.5791067575136267596239366479529
180,1.5802287375470691148492022818211
181,1.5813444991854366665493095744103
182,1.5824541110068499466408438863915
183,1.5835576404611786140939066697491
184,1.5846551538946603424132593994098
185,1.5857467165738515902554012827563
186,1.5868323927089312237745224390039
187,1.5879122454763807911691068671213
188,1.5889863370410568857171622832882
189,1.5900547285776793283615868957804
190,1.5911174802917508208941330366978
191,1.5921746514399272922601016973836
192,1.5932263003498553201566310454708
193,1.5942724844394949317415093770468
194,1.5953132602359411242040772808151
195,1.5963486833937620375247379009154
196,1.5973788087128674712910144538672
197,1.5984036901559221208579949699148
198,1.5994233808653176947994138520306
199,1.6004379331797167474699993906425
200,1.6014473986501821668450084316860
201,1.6024518280559032940208293985154
202,1.6034512714195320504935561285137
203,1.6044457780221397279023798130934
204,1.6054353964178060551050422733239
205,1.6064201744478505079023915913055
206,1.6074001592547188801148033232156
207,1.6083753972955309866411815150469
208,1.6093459343553037199109752237307
209,1.6103118155598552025622748235902
210,1.6112730853884015319510561218661
211,1.6122297876858534754532973066816
212,1.6131819656748233436883955607362
213,1.6141296619673464195575645740916
214,1.6150729185763319187867040830599
215,1.6160117769267426882045859375095
216,1.6169462778665175962129897472184
217,1.6178764616772405744904869422240
218,1.6188023680845652833788860688836
219,1.6197240362683986738878659708490
220,1.6206415048728559544444222078485
221,1.6215548120159848646768239512217
222,1.6224639952992764535970511623744
223,1.6233690918169559230126509077268
224,1.6242701381650685954649166851166
225,1.6251671704503635632356059598649
226,1.6260602242989785563616215590653
227,1.6269493348649346725035051540475
228,1.6278345368384427788662320558693
229,1.6287158644540287383149943409016
230,1.6295933514984821459212643387735
231,1.6304670313186303652013371456471
232,1.6313369368289482729590084883107
233,1.6322031005189986982284820077645
234,1.6330655544607197013744132424602
235,1.6339243303155518644402339790154
236,1.6347794593414152915042407627070
237,1.6356309723995399391611437741246
238,1.6364788999611510081310266266112
239,1.6373232721140148315656249257255
240,1.6381641185688474134596317239490
241,1.6390014686655898985042235133361
242,1.6398353513795538293228093800453
243,1.6406657953274402218510339016023
244,1.6414928287732341470854116965736
245,1.6423164796339791923001286807084
246,1.6431367754854343202880097611826
247,1.6439537435676145083986782689979
248,1.6447674107902227479169598832057
249,1.6455778037379683722843099196075
250,1.6463849486757820982725801349529
251,1.6471888715539256795247421159735
252,1.6479895980129989703657779023599
253,1.6487871533888494714900509094039
254,1.6495815627173840137857604952499
255,1.6503728507392864597289210691395
256,1.6511610419046415071176382866610
257,1.6519461603774709858942646083512
258,1.6527282300401790921182458982133
259,1.6535072744979133619435332646031
260,1.6542833170828417713094935201857
261,1.6550563808583462744061501222998
262,1.6558264886231375056499425160498
263,1.6565936629152894950614548214451
264,1.6573579260161998472069363429829
265,1.6581192999544739082408762907502
266,1.6588778065097350880911637958123
267,1.6596334672163645503285893532698
268,1.6603863033671703027291480925667
269,1.6611363360169899577381018783190
270,1.6618835859862228862697257848396
271,1.6626280738643010480891591664000
272,1.6633698200130924776303375104366
273,1.6641088445702448676541711053315
274,1.6648451674524664590546568932551
275,1.6655788083587481116824208787825
276,1.6663097867735248338279361483653
277,1.6670381219697842536685487990117
278,1.6677638330121137866171983468931
279,1.6684869387596980010318168790341
280,1.6692074578692582751451817641979
281,1.6699254087979426340334724489614
282,1.6706408098061632628860479223103
283,1.6713536789603849090179155982395
284,1.6720640341358613291548111006225
285,1.6727718930193265892476323380602
286,1.6734772731116372415552933180421
287,1.6741801917303704382842090366838
288,1.6748806660123743835555162315133
289,1.6755787129162757717598757543436
290,1.6762743492249449448239690030184
291,1.6769675915479166093247205192522
292,1.6776584563237689983547071280381
293,1.6783469598224653839094578255168
294,1.6790331181476529767091241598445
295,1.6797169472389213005954297543088
296,1.6803984628740276270618664444349
297,1.6810776806710794016394132404354
298,1.6817546160906829788863558765992
299,1.6824292844380554688359778536577
300,1.6831017008651014455029654558863
301,1.6837718803724549288827533584811
302,1.6844398378114887333715965294894
303,1.6851055878862883557333004847317
304,1.6857691451555939801379620088683
305,1.6864305240347120287958149402232
306,1.6870897387973955214029711290071
307,1.6877468035776904253695171593838
308,1.6884017323717554752759916663004
309,1.6890545390396515508410784681480
310,1.6897052373071009485648594149633
311,1.6903538407672201419686059686878
312,1.6910003628822235435825936935819
313,1.6916448169850996614484515726470
314,1.6922872162812614544295866441710
315,1.6929275738501702059915821155073
316,1.6935659026469342921145228301364
317,1.6942022155038803819619810977394
318,1.6948365251321024225720230730716
319,1.6954688441229855491529350825268
320,1.6960991849497049222626244275761
321,1.6967275599687034108271704077275
322,1.6973539814211442354520169642135
323,1.6979784614343420860851284989339
324,1.6986010120231716911961580938465
325,1.6992216450914556004730353310693
326,1.6998403724333294182874262644087
327,1.7004572057345873087061120758098
328,1.7010721565740049612680711985033
329,1.7016852364246449924086287090274
330,1.7022964566551412142216331620664
331,1.7029058285309632091606729537614
332,1.7035133632156622719278647942472
333,1.7041190717720990971136594552808
334,1.7047229651636513966190973335065
335,1.7053250542554057618009784954071
336,1.7059253498153298284006849887100
337,1.7065238625154276165112993520924
338,1.7071206029328791044450025460515
339,1.7077155815511601010167167867288
340,1.7083088087611485075954403383220
341,1.7089002948622126835112940124586
342,1.7094900500632844119785262802522
343,1.7100780844839161043355593052057
344,1.7106644081553222363208579503888
345,1.7112490310214068357317543855106
346,1.7118319629397744962734313906554
347,1.7124132136827284829705918953112
348,1.7129927929382527408796454770998
349,1.7135707103109813520400501665647
350,1.7141469753231529830212308980373
351,1.7147215974155524106833911754153
352,1.7152945859484388085347501793089
353,1.7158659502024600780796679161444
354,1.7164356993795546396518098068489
355,1.7170038426038410480350675561940
356,1.7175703889224936426792076435859
357,1.7181353473066074715759885338846
358,1.7186987266520517328225711831620
359,1.7192605357803074790395922950570
360,1.7198207834392985225912753920809
361,1.7203794783042072865056241857087
362,1.7209366289782820827260022293467
363,1.7214922439936304133375126518836
364,1.7220463318120033187947912461466
365,1.7225989008255690095515063624244
366,1.7231499593576746587951459461226
367,1.7236995156635992483323014555641
368,1.7242475779312942563901523000659
369,1.7247941542821168199160702234423
370,1.7253392527715510845891942170098
371,1.7258828813899205958914304000678
372,1.7264250480630906877578759980035
373,1.7269657606531608355627531867856
374,1.7275050269591512819624323800451
375,1.7280428547176746272075392756400
376,1.7285792516036038401838986508109
377,1.7291142252307284794379766127099
378,1.7296477831524022916418193006315
379,1.7301799328621840273471330131291
380,1.7307106817944682308394637125203
381,1.7312400373251088795764179482484
382,1.7317680067720329914283143162001
383,1.7322945973958488744329015655674
384,1.7328198164004439828140280438815
385,1.7333436709335760005718999891461
386,1.7338661680874578113474763928115
387,1.7343873148993321039496379663058
388,1.7349071183520395503972673525451
389,1.7354255853745812312121117448006
390,1.7359427228426724971237676536954
391,1.7364585375792885841791476247418
392,1.7369730363552055906878259549887
393,1.7374862258895342895445144854813
394,1.7379981128502453570798111381137
395,1.7385087038546888753684174576188
396,1.7390180054701077589188080595812
397,1.7395260242141447357099744826471
398,1.7400327665553428907675885136425
399,1.7405382389136383381309433034890
400,1.7410424476608493212287158368136
401,1.7415453991211577906439670836582
402,1.7420470995715842045485890395054
403,1.7425475552424583726101540729216
404,1.7430467723178842365261101683474
405,1.7435447569361960526966499347266
406,1.7440415151904120861387162753692
407,1.7445370531286829324292600995758
408,1.7450313767547319709424879833649
409,1.7455244920282908105293829821674
410,1.7460164048655322421902316073414
411,1.7465071211394949588332552644309
412,1.7469966466805036247833067882734
413,1.7474849872765853741781570162536
414,1.7479721486738791621759288636568
415,1.7484581365770422530175686348785
416,1.7489429566496502746576014876526
417,1.7494266145145936885341357015007
418,1.7499091157544678378000468576925
419,1.7503904659119608526134358726376
420,1.7508706704902343944976032767778
421,1.7513497349533011920441278859786
422,1.7518276647263986496545881381407
423,1.7523044651963563655534677354204
424,1.7527801417119611728936300899408
425,1.7532546995843160834095242912859
426,1.7537281440871967405589929100202
427,1.7542004804574028668821819604718
428,1.7546717138951047193691347058224
429,1.7551418495641884653258433473036
430,1.7556108925925933409514634119123
431,1.7560788480726480963867254215469
432,1.7565457210614038768587564352461
433,1.7570115165809588779295071985112
434,1.7574762396187858728972799135176
435,1.7579398951280504361407783404258
436,1.7584024880279277635130768245552
437,1.7588640232039162512733456995994
438,1.7593245055081468157410408525549
439,1.7597839397596886351000806069186
440,1.7602423307448523846903017328841
441,1.7606996832174881257678570273708
442,1.7611560018992814115081153437322
443,1.7616112914800472580784758217139
444,1.7620655566180166002859357589780
445,1.7625188019401245625944959040488
446,1.7629710320422915699988244805117
447,1.7634222514897044680637460220200
448,1.7638724648170908704762631470756
449,1.7643216765289945747581093258603
450,1.7647698911000441987290528912655
451,1.7652171129752225409682607022674
452,1.7656633465701295067728826203919
453,1.7661085962712443428449368467294
454,1.7665528664361835698144288639458
455,1.7669961613939582366313438377401
456,1.7674384854452257939954808865133
457,1.7678798428625412826954051923393
458,1.7683202378906042329288896744891
459,1.7687596747465037887011469168571
460,1.7691981576199616998251896359211
461,1.7696356906735710314302281645277
462,1.7700722780430338042129593758938
463,1.7705079238373961693935386723430
464,1.7709426321392792794727272438144
465,1.7713764070051098237243231034669
466,1.7718092524653473593186811236277
467,1.7722411725247077187981993273281
468,1.7726721711623875097539068203388
469,1.7731022523322821836133632999614
470,1.7735314199632051982945276961686
471,1.7739596779591025420563400036562
472,1.7743870301992669163811325954726
473,1.7748134805385469290214343112209
474,1.7752390328075588014391722940778
475,1.7756636908128895136310115241902
476,1.7760874583373039003882239776632
477,1.7765103391399460322356514471266
478,1.7769323369565395572926785396769
479,1.7773534554995858936954651188372
480,1.7777736984585606674263177391215
481,1.7781930695001069466930933715286
482,1.7786115722682288419162490500670
483,1.7790292103844808516019371960540
484,1.7794459874481557741367367579261
485,1.7798619070364726626712401036409
486,1.7802769727047594081779134581397
487,1.7806911879866367997683552474312
488,1.7811045563941986590605450306682
489,1.7815170814181912770068977874414
490,1.7819287665281900165484015297820
491,1.7823396151727752156164615072854
492,1.7827496307797059789178176460999
493,1.7831588167560918337631109723033
494,1.7835671764885633442360014193605
495,1.7839747133434398764618115181191
496,1.7843814306668977596649965522722
497,1.7847873317851345288115607587908
498,1.7851924200045331943677122556172
499,1.7855966986118240367839150435129
500,1.786000170874246056467289147234
501,1.786402840039703825552264006243
502,1.786804709336927196925081548049
503,1.787205781975625338914284762185
504,1.787606061146642939767557549702
505,1.788005550022111429676819388297
506,1.788404251755600950739249350475
507,1.788802169482270923184847871438
508,1.789199306319018848144919468787
509,1.789595665364625578169976087865
510,1.789991249699903109059196236006
511,1.790386062387838124415515734770
512,1.790780106473735193464729780726
513,1.791173384985358238232605959491
514,1.791565900933070946909191351286
515,1.791957657309976508077075292760
516,1.792348657092054876585710335426
517,1.792738903238298646267366431825
518,1.793128398690849315347149866133
519,1.793517146375130726980712070994
520,1.793905149199982542414152417798
521,1.794292410057790542511960635709
522,1.794678931824618034378589461874
523,1.795064717360334800771044756199
