Eigenstate,Potential Energy
1,0.500000000576796103088999763330615807
2,0.64623094141620973751450711550505365
3,0.73633762076496126240587750306688352
4,0.79966530085184655718966780795545017
5,0.8480466151935689520412353976242687
6,0.8870660586279848775921566424609092
7,0.9197209126333196478657413071400816
8,0.9477839636087806696550504281821653
9,0.9723837105748111289050637092007433
10,0.9942804076901990065018920229223666
11,1.0140096251042055164738073843095902
12,1.0319624581286854112369400658748046
13,1.0484330368362174506595122091980620
14,1.0636480589165763779487557622805285
15,1.0777859054911055415393611717983004
16,1.090989445983280411862816946059222
17,1.103374871580290531673244795445125
18,1.115037946239291587258141034008761
19,1.126058529791419808671362587437232
20,1.136503915575754885964836956626052
21,1.146431336521036737927614359522906
22,1.155889876304420541518771816381142
23,1.164921947288013023487704185603919
24,1.173564447919303957321057115734938
25,1.181849679527100251222428324040919
26,1.189806080129120211302327599665565
27,1.197458817394575029890825824026595
28,1.204830272003213649220020526470933
29,1.211940434847279266591565250276110
30,1.218807235873338133863853335547623
31,1.225446818215002772692554409938759
32,1.231873768189672119638651448555234
33,1.238101309422763294639437009147874
34,1.244141467612363408018459375460392
35,1.250005211108034746451878594622553
36,1.255702571444027792947585182733780
37,1.261242747163071982214164596096747
38,1.266634193636495345705652832596690
39,1.271884701088575548068542461656768
40,1.277001462637204030812395898942944
41,1.281991133846194703461235487539431
42,1.286859885029576019492533659149413
43,1.291613447341718928314223182688338
44,1.296257153519059178123256980842269
45,1.300795974001602874776533357729533
46,1.305234549049267918642741435933929
47,1.309577217374637328617780250741319
48,1.313828041736114097879405226338138
49,1.317990831870804681772405654156342
50,1.32206916509233550433793791348405
51,1.32606640483333990735027293699494
52,1.32998571737400775128747991610810
53,1.33383008696563975901122060873032
54,1.33760232953058756139930329213629
55,1.34130510509648491160634610567027
56,1.34494092910260096446749227611865
57,1.34851218269894755242093797623726
58,1.35202112214397520303104425357031
59,1.35546988739393869591918811692664
60,1.35886050996598844922777056961753
61,1.36219492014747979826053170850429
62,1.36547495361569122386266157879810
63,1.36870235752490069912143216135604
64,1.37187879611145684309192178550608
65,1.37500585586194673033303236738040
66,1.37808505028471486603692556133365
67,1.38111782432072554527359121255678
68,1.38410555842600465412659635609733
69,1.38704957235458429984236871628569
70,1.38995112866794538891759567283676
71,1.39281143599435456840501829121689
72,1.39563165205919370340839234664420
73,1.39841288650532705742792255714874
74,1.40115620352073249374412753697653
75,1.40386262428899191502293408902301
76,1.40653312927678660165830354893090
77,1.40916866037124071105331327560212
78,1.41177012287879040195943772511612
79,1.41433838739620922810701552232014
80,1.41687429156348231982220014623537
81,1.41937864170737253096414633504052
82,1.42185221438376027807513965785110
83,1.42429575782615006496666450221785
84,1.42670999330711239437197969706337
85,1.42909561641887049224775989398070
86,1.43145329827872540504776792081065
87,1.43378368666455555962937871677043
88,1.43608740708520349785307706670620
89,1.43836506379017899591803884075976
90,1.44061724072276456189544669117898
91,1.44284450242028785302181884130135
92,1.44504739486503725693113715765766
93,1.44722644628903462611163647785549
94,1.44938216793563622629915029428527
95,1.45151505478071180566396009726812
96,1.45362558621594986970326585899976
97,1.45571422669665290483105781027724
98,1.45778142635621341954140011474927
99,1.45982762158930820003154788999002
100,1.46185323560570183695291990436001
101,1.46385867895642127600575986916854
102,1.46584435003393757058971268609707
103,1.46781063554788310132165647535568
104,1.46975791097772526275464123388777
105,1.47168654100372454409839224880228
106,1.47359687991741416674565530438488
107,1.47548927201276035969600737049168
108,1.47736405195908311467073650841559
109,1.47922154515674866944329566531962
110,1.48106206807658254805346311066682
111,1.48288592858388612565782944766825
112,1.48469342624789025242456613040470
113,1.48648485263742393538410884562761
114,1.48826049160352731970352840651359
115,1.49002061954969776266454217698612
116,1.49176550569040946230724422106936
117,1.49349541229851539003782892921690
118,1.49521059494209924574138473907621
119,1.49691130271131144058735297235613
120,1.49859777843569727085843549088817
121,1.50027025889248717927604197258572
122,1.50192897500630008756117810230496
123,1.50357415204067859145704020272379
124,1.50520600978185713005214798289588
125,1.50682476271513467543100025512702
126,1.50843062019420829183430647836372
127,1.51002378660380333609908449537987
128,1.51160446151591348445260804274675
129,1.51317283983995169799821403918519
130,1.51472911196709485789344738177208
131,1.51627346390908939764062187606807
132,1.51780607743177028328216338442957
133,1.51932713018353391127333679157634
134,1.52083679581899421846651564921033
135,1.52233524411803319091472195684799
136,1.52382264110045327131310913986204
137,1.52529914913642585763444325546222
138,1.52676492705291647420802352389091
139,1.52822013023626509130687349237506
140,1.52966491073108462408772439789736
141,1.53109941733563608500392499269880
142,1.53252379569383079134787980660917
143,1.53393818838400138024136957823879
144,1.53534273500457620460878551358218
145,1.53673757225678749680648425142881
146,1.53812283402453581875206867519423
147,1.53949865145152511539311735201811
148,1.54086515301578373131233468486878
149,1.54222246460167322323186288127937
150,1.54357070956948864216427207839863
151,1.54491000882274623345924730110558
152,1.54624048087324888905159093868355
153,1.54756224190401833794931384066952
154,1.54887540583017801178996025725062
155,1.55018008435786486033535288561574
156,1.55147638704124802349896300185858
157,1.55276442133772544811646459725926
158,1.55404429266137031064408331723121
159,1.5553161044346909631886992739921
160,1.5565799581387707865601113713289
161,1.5578359533618464942394896826215
162,1.5590841878463843978377740503623
163,1.5603247575347095385761795880549
164,1.5615577566132423744612268851475
165,1.5627832775553916783448404253030
166,1.5640014111631542194247367057143
167,1.5652122466074685195423341621261
168,1.5664158714673654343804620029828
169,1.5676123717679606850728626277146
170,1.5688018320173291491175394317635
171,1.5699843352423011732415053630255
172,1.5711599630232188456127813922422
173,1.5723287955276877030937290795611
174,1.5734909115433597931848422720285
175,1.5746463885097821545768920195678
176,1.5757953025493405046501661913322
177,1.5769377284973314795696970838693
178,1.5780737399311926697214546858647
179,1.5792034091989169872067370848570
180,1.5803268074466824070755081978314
181,1.5814440046457198298995252602492
182,1.5825550696184468639138847800189
183,1.5836600700638906829100648439499
184,1.5847590725824243125040957004264
185,1.5858521426998382684162242351114
186,1.5869393448907686354749256473112
187,1.5880207426015055127494312682533
188,1.5890963982721973910490372593116
189,1.5901663733584753290581208442133
190,1.5912307283525127198502707070660
191,1.5922895228035400167433745066598
192,1.5933428153378309531181600597391
193,1.5943906636781787187748279765444
194,1.5954331246628755988970952069877
195,1.5964702542642141801795141158075
196,1.5975021076065239954431030546231
197,1.5985287389837581690377477254896
198,1.5995502018766444199203191373794
199,1.6005665489694134594999707791550
200,1.6015778321661189363646583846819
201,1.6025841026065601253918045400097
202,1.6035854106818209680490702644513
203,1.6045818060494363593060848934462
204,1.6055733376481975473373254646552
205,1.6065600537126068736925140535625
206,1.6075420017869951466588380717557
207,1.6085192287393078046737849833430
208,1.6094917807745743902559136205053
209,1.6104597034480673898610649251117
210,1.6114230416781622619900383605272
211,1.6123818397589063541899573353334
212,1.6133361413723072934000717368016
213,1.6142859896003456014054605580583
214,1.6152314269367269023034869047537
215,1.6161724952983733377282642493942
216,1.6171092360366685730796599794580
217,1.6180416899484608028475635989487
218,1.6189698972868331979536450561529
219,1.6198938977716455610299739958579
220,1.6208137305998602145274118446129
221,1.6217294344556505657753347158823
222,1.6226410475203101146482496258120
223,1.6235486074819560608815608527629
224,1.6244521515450431960171905777235
225,1.6253517164396912933723248041094
226,1.6262473384308302236984921865030
227,1.6271390533271721638880811121650
228,1.6280268964900134702185241053568
229,1.6289109028418741684554687376589
230,1.6297911068749805883835662481719
231,1.6306675426595938169282734241482
232,1.6315402438521953098049290138148
233,1.6324092437035256270802081075205
234,1.6332745750664934703807758535908
235,1.6341362704039492794001536492246
236,1.6349943617963342312671071224470
237,1.6358488809492094694431332102868
238,1.6366998592006685652774516683450
239,1.6375473275286399895344621103114
240,1.6383913165580831630053751828989
241,1.6392318565680838618320004096969
242,1.6400689774988534113411344258790
243,1.6409027089586373659144960473493
244,1.6417330802305371244301501642619
245,1.6425601202792507164222424663918
246,1.6433838577577372468134544890216
247,1.6442043210138084645463584465814
248,1.6450215380966572411090844221641
249,1.6458355367633202628447741593651
250,1.6466463444850877952403283071754
251,1.6474539884538610407677416688872
252,1.6482584955884626684962832084803
253,1.6490598925409085364799173843188
254,1.6498582057026433932880973901143
255,1.6506534612107477616264241011584
256,1.6514456849541196193347079905424
257,1.6522349025796410207103116888989
258,1.6530211394983300919937519841900
259,1.6538044208914894483489097317886
260,1.6545847717168559358257709013915
261,1.6553622167147568223769041001106
262,1.6561367804142822888260245127611
263,1.6569084871394785343112891138502
264,1.6576773610155727751302787854322
265,1.6584434259752348820251038734765
266,1.6592067057648844652048499305860
267,1.6599672239510537163819550681746
268,1.6607250039268136274037879814022
269,1.6614800689182759698065747222447
270,1.6622324419911754443163981833978
271,1.6629821460575505854651691994168
272,1.6637292038825273683406796100567
273,1.6644736380912236486998526923785
274,1.6652154711757831138637235711688
275,1.6659547255025549335750819922387
276,1.6666914233194306192499113107414
277,1.6674255867633597999991035828549
278,1.6681572378680519741192954739377
279,1.6688863985718922166740894155226
280,1.6696130907260806902456324009349
281,1.6703373361030229910664242879750
282,1.6710591564049894834555437967254
283,1.6717785732730691417979914715404
284,1.6724956082964391642211667577917
285,1.6732102830219832399002280678941
286,1.6739226189642827200697004436624
287,1.6746326376160163309338043226757
288,1.6753403604587979872448447959621
289,1.6760458089744933384116862201471
290,1.6767490046570548661185616432287
291,1.6774499690249158695665716559728
292,1.6781487236339924677481908855370
293,1.6788452900913478968310617240663
294,1.6795396900695690616763594142674
295,1.6802319453219173714876595061287
296,1.6809220776983269342477625147138
297,1.6816101091623116651736499374964
298,1.6822960618088690422431280246105
299,1.6829799578834632594015003947152
300,1.6836618198021838362776332604962
301,1.6843416701731836973122695966097
302,1.6850195318195127580418025162432
303,1.6856954278034696646810740340748
304,1.6863693814526136037191576084792
305,1.6870414163875903297945030174547
306,1.6877115565519404911733869325431
307,1.6883798262440742950986542409520
308,1.6890462501516271112328717028195
309,1.6897108533884220043941293902699
310,1.6903736615342950957014627873879
311,1.6910347006780718645314255816028
312,1.6916939974640091468848125542236
313,1.6923515791420585179887054275763
314,1.6930074736223491893221425977114
315,1.6936617095343338329561643436105
316,1.6943143162910971952406610429666
317,1.6949653241593855879655419303460
318,1.6956147643359941188272578841873
319,1.6962626690312216228405214992439
320,1.6969090715601994893142170203147
321,1.6975540064430119688784615744180
322,1.6981975095146417340688319098300
323,1.6988396180459252710968819790409
324,1.6994803708768644187070405772759
325,1.7001198085638364546047984531519
326,1.7007579735424669336434176432188
327,1.7013949103081974711915713697990
328,1.7020306656168838543588412524538
329,1.7026652887081308162419856642041
330,1.7032988315544896950172669241332
331,1.7039313491401572900236316985781
332,1.7045628997734160826223248726594
333,1.7051935454377730982537441855753
334,1.7058233521876111987643347122309
335,1.7064523905952040049044836960785
336,1.7070807362571809553166880750681
337,1.7077084703700417319736916173801
338,1.7083356803861491777214137060629
339,1.7089624607638632081979204819580
340,1.7095889138282369361786797255541
341,1.7102151507620785309438559348306
342,1.7108412927513992919530095591666
343,1.7114674723145199210226200892327
344,1.7120938348507042042338333072194
345,1.7127205404525260195968472139664
346,1.7133477660367726228954363853424
347,1.7139757078622732632687975927301
348,1.7146045845205621499986885849804
349,1.7152346405080934288358274577714
350,1.7158661505186382135785461373370
351,1.7164994246341125924457352925749
352,1.7171348146450482591046317485120
353,1.7177727218034751079544013296240
354,1.7184136064087561000554583250750
355,1.7190579997621203294394885879275
356,1.7197065192150826007143857202618
357,1.7203598873061820891263509494850
358,1.7210189563690829325525151734331
359,1.7216847405655734055293719616530
360,1.7223584581502460463439172902794
361,1.7230415880761876710692849512403
362,1.7237359470853800425903659858891
363,1.7244437966866506939839665928858
364,1.7251679947968301320767046023610
365,1.7259122159696016452919723038502
366,1.7266812803027126634405151504735
367,1.7274816609276453725096531581853
368,1.7283222977836104117215624880675
369,1.7292159642655567950684307685004
370,1.7301816960123488437657949904070
371,1.7312494250416079566791702044891
372,1.7324696741106661048667360982723
373,1.7339365278558224733307343686925
374,1.7358527869341651523273218601452
375,1.7387765003453521907516108083214
376,1.7452761468335122085402476535223
