Eigenstate,Potential Energy
1,0.500000000014403140274509112659941103
2,0.64623093774513079408129708269889910
3,0.73633760998114031439533140212064774
4,0.79966527838945774150370130151293456
5,0.8480465762820815887500488194937008
6,0.8870659984120887945462660564667716
7,0.9197208262169051284082498210784471
8,0.9477838460730884892534547705490837
9,0.9723835569866962609227967950866497
10,0.9942802131061623343143816248536175
11,1.0140093845724329008004661200933537
12,1.0319621666900709120212857187098104
13,1.0484326895248330858580198971026666
14,1.0636476507598229216002438357948013
15,1.0777854315096704488368994104124820
16,1.090988901190974133397427253002066
17,1.103374250983803257128961554497749
18,1.115037244837896156829255550471015
19,1.126057742576637066150910199454000
20,1.136503037530992056506068910200094
21,1.146430362621205883311792093918985
22,1.155888801515541894307578248497301
23,1.164920766566806529294405333198033
24,1.173563156212771369971480139133119
25,1.181848271772099453675542028145835
26,1.189804551251932968017737725317407
27,1.197457162310469045904800478747039
28,1.204828485615999573789308967631406
29,1.211938512048863106192582319811451
30,1.218805171543269411434762993701653
31,1.225444607220018674271541081368429
32,1.231871405383237797022599289107843
33,1.238098789644608437099181864728772
34,1.244138785688015153026220153242984
35,1.250002361848346965623855890596948
36,1.255699549644706762678011926179815
37,1.261239547604198427085089347329261
38,1.266630811082042825453035364533987
39,1.271881130285925144734190644675144
40,1.276997698316655281009546321361105
41,1.281987170720472710895384195645458
42,1.286855717793334674596605948943920
43,1.291609070671040154762787412673448
44,1.296252562070948119838459855900711
45,1.300791162413478931634915177624710
46,1.305229511938451534284737504090427
47,1.309571949337832429431716613050257
48,1.313822537348886078279867245092477
49,1.317985085687053827244898006746885
50,1.32206317164376574031172367631524
51,1.32606015862892275874047273188448
52,1.32997921289944139447359990008515
53,1.33382331868280304505875307861197
54,1.33759529187698888645270632542129
55,1.34129779248470580756560732253022
56,1.34493333591973428028453178143991
57,1.34850430330603009360053219709571
58,1.35201295087541469417598325503710
59,1.35546141855693492841699825647357
60,1.35885173783994847341604761326066
61,1.36218583898342701662762802079591
62,1.36546555763566823902832133399769
63,1.36869264092136576749373921158647
64,1.37186875304667378220424124092586
65,1.37499548046736812491972535486519
66,1.37807433666035841491087782168957
67,1.38110676653454338800936798346936
68,1.38409415051324551343178695599164
69,1.38703780831714827230601239260612
70,1.38993900247373121356538785853140
71,1.39279894157659919914536984888902
72,1.39561878331580400803809267239289
73,1.39839963729820346235708682392511
74,1.40114256767508439001205872673324
75,1.40384859559264463749087264905608
76,1.40651870147947978949093050729020
77,1.40915382718391785372423227360323
78,1.41175487797287937104040553448100
79,1.41432272440289359101990124992112
80,1.41685820407296322754527495496030
81,1.41936212326812096738194447751125
82,1.42183525850175945424641714554162
83,1.42427835796412773705042570288954
84,1.42669214288376287929331266731522
85,1.42907730880806615040140159674270
86,1.43143452680871735442384571990206
87,1.43376444461716338069457190254022
88,1.43606768769499368333432340337481
89,1.43834486024363189430531774693720
90,1.44059654615742955800178794723007
91,1.44282330992392652330900549516503
92,1.44502569747475423152427849310283
93,1.44720423699039588347781061935555
94,1.44935943966177454045320619538645
95,1.45149180041141905947841211126696
96,1.45360179857675594144149545430123
97,1.45568989855789082837599952973279
98,1.45775655043207051196601092099397
99,1.45980219053686284313185528671054
100,1.46182724202394559214136031890304
101,1.46383211538526600453708791716435
102,1.46581720895320722344890110484295
103,1.46778290937628983524834744532789
104,1.46972959207182953079090461954614
105,1.47165762165687880073528672301894
106,1.47356735235868981918525905880892
107,1.47545912840585758794400888749200
108,1.47733328440122317411675488196674
109,1.47919014567754828026308564024688
110,1.48103002863690996617548049382233
111,1.48285324107469848016194376495782
112,1.48466008248905172407719912783186
113,1.48645084437650434055283134928730
114,1.48822581051458065312041090255332
115,1.48998525723202024141906445191311
116,1.49172945366727660203074857595136
117,1.49345866201589763247970944200459
118,1.49517313776735564482702888037825
119,1.49687312993186090157489764459850
120,1.49855888125766682436022457787796
121,1.50023062843933675867300934559389
122,1.50188860231742326470208643346095
123,1.50353302806997871147886914288778
124,1.50516412539629827168105587790957
125,1.50678210869326684819514724154314
126,1.50838718722466626623907228469483
127,1.50997956528377848695982063337371
128,1.51155944234959801123108505513849
129,1.51312701323695456913782010732741
130,1.51468246824082880876734737898979
131,1.51622599327512829380856688831982
132,1.51775777000617614226000945035084
133,1.51927797598115285696359395355831
134,1.52078678475172062272196158662425
135,1.52228436599304123641487365700030
136,1.52377088561839514899979736121388
137,1.52524650588959579033812607976512
138,1.52671138552337973579797811880939
139,1.52816567979395116767885242224486
140,1.52960954063184363853514900359556
141,1.53104311671925758598564306186695
142,1.53246655358202397532885590721619
143,1.53387999367833579611506120815898
144,1.53528357648438195918855911673474
145,1.53667743857701395295491211218665
146,1.53806171371356774887675883196940
147,1.53943653290895524323589754928564
148,1.54080202451014056416601786937928
149,1.54215831426810304488606324417088
150,1.54350552540739050398717184804780
151,1.54484377869335874700219677278377
152,1.54617319249718758840230299146414
153,1.54749388285876234368836507303018
154,1.54880596354750469079299199644769
155,1.55010954612123113675909864685503
156,1.55140473998311695603099655122395
157,1.55269165243683664693388033906212
158,1.55397038873995272441511141424514
159,1.5552410521556165218527161734076
160,1.5565037440026473394407956316336
161,1.5577585637040484352427754161011
162,1.5590056088340193199838128142892
163,1.5602449751635192088517237192844
164,1.5614767567044362668712826667459
165,1.5627010457524112480395073804746
166,1.5639179329283660437806336379225
167,1.5651275072187843730101443612513
168,1.5663298560147873026912455171957
169,1.5675250651500486609443662449531
170,1.5687132189375900857952195568068
171,1.5698944002054959039921359486818
172,1.5710686903315857065204483828382
173,1.5722361692770800231145383401233
174,1.5733969156192949392513896328969
175,1.5745510065833996405284464907672
176,1.5756985180732665907484064713802
177,1.5768395247014476042181991441888
178,1.5779740998183049666280908600397
179,1.5791023155403240494264409493436
180,1.5802242427776383640587199308249
181,1.5813399512607897046266264915772
182,1.5824495095667510743222667145195
183,1.5835529851442354448809343873215
184,1.5846504443383145905580428944301
185,1.5857419524143698047229426385714
186,1.5868275735813954676583825801536
187,1.5879073710146792660321951968973
188,1.5889814068778745003247888586551
189,1.5900497423444882112690933318556
190,1.5911124376188007763465402931483
191,1.5921695519562361988563694631342
192,1.5932211436831994717260578467387
193,1.5942672702163993198749935596957
194,1.5953079880816696618776221226083
195,1.5963433529323077232477820511565
196,1.5973734195669424932065579714195
197,1.5983982419469479002166097888580
198,1.5994178732134148682237690752316
199,1.6004323657036950874210144122164
200,1.6014417709675304396955007844234
201,1.6024461397827790551370775372427
202,1.6034455221707513757192122331552
203,1.6044399674111668808340445119424
204,1.6054295240567430895426602428102
205,1.6064142399474268048522659515485
206,1.6073941622242806187167778634893
207,1.6083693373430305483859443507124
208,1.6093398110872890255072209565610
209,1.6103056285814589808076170804674
210,1.6112668343033305199541282332827
211,1.6122234720963775495487845016379
212,1.6131755851817645803799810089717
213,1.6141232161700680858175971166897
214,1.6150664070727273910350628791874
215,1.6160051993132242992826041161179
216,1.6169396337380054096617123879979
217,1.6178697506271510854358802989892
218,1.6187955897048000453200116186919
219,1.6197171901493328506769156419084
220,1.6206345906033267967410705656236
221,1.6215478291832801101516728356308
222,1.6224569434891226501526565245765
223,1.6233619706135066742828381412816
224,1.6242629471508927278463137634969
225,1.6251599092064332136974636324002
226,1.6260528924046571802730941978709
227,1.6269419318979649707098391109588
228,1.6278270623749345432376883629795
229,1.6287083180684466149845178351751
230,1.6295857327636333154194406462426
231,1.6304593398056521386889574712621
232,1.6313291721072956037499382192112
233,1.6321952621564316077871214352578
234,1.6330576420232906189639970477387
235,1.6339163433675928795900505341951
236,1.6347713974455253184552822422949
237,1.6356228351165717924413829609309
238,1.6364706868501983884028147017941
239,1.6373149827323992208793174163863
240,1.6381557524721048790380417978900
241,1.6389930254074578041745201853442
242,1.6398268305119574537029425879149
243,1.6406571964004792823884934852467
244,1.6414841513351692290374700725650
245,1.6423077232312180817349273573783
246,1.6431279396625182401762723636085
247,1.6439448278672042568569239244747
248,1.6447584147530847376525173549676
249,1.6455687269029605702834315787760
250,1.6463757905798398647623632244384
251,1.6471796317320475052298889908075
252,1.6479802759982321110709668897970
253,1.6487777487122754789083925617489
254,1.6495720749081041617231192881688
255,1.6503632793244070645238162471100
256,1.6511513864092591413251133258700
257,1.6519364203246575841718410925176
258,1.6527184049509669482606644808194
259,1.6534973638912800160023819903236
260,1.6542733204756947857219401703545
261,1.6550462977655078980460580079261
262,1.6558163185573292247030929377746
263,1.6565834053871164696145622566115
264,1.6573475805341352324288121691958
265,1.6581088660248430590217125197132
266,1.6588672836366996459940788831608
267,1.6596228549019064116950458911474
268,1.6603756011110754667675781101154
269,1.6611255433168322534124289275710
270,1.6618727023373475767917690852168
271,1.6626170987598083118058711997981
272,1.6633587529438207640837828691985
273,1.6640976850247541275790635169664
274,1.6648339149170212470646931055830
275,1.6655674623173005603830287928915
276,1.6662983467076974980794035604177
277,1.6670265873588528237095484346288
278,1.6677522033329896687445628133049
279,1.6684752134869107645179988587898
280,1.6691956364749379640607329922488
281,1.6699134907518019426266741797327
282,1.6706287945754795731574053069673
283,1.6713415660099821891119369201922
284,1.6720518229280918911766389357451
285,1.6727595830140527050954895992583
286,1.6734648637662126153459214999971
287,1.6741676824996215339309486826753
288,1.6748680563485816060433151044678
289,1.6755660022691545006455814436715
290,1.6762615370416264184729685935694
291,1.6769546772729286583790331212013
292,1.6776454393990166269101518525737
293,1.6783338396872111968631494506519
294,1.6790198942384974517199230901446
295,1.6797036189897829030838542988183
296,1.6803850297161227666571689945333
297,1.6810641420329022284635704709993
298,1.6817409713979850180469842661499
299,1.6824155331138250914810517590766
300,1.6830878423295431747717745669683
301,1.6837579140429685790680629232338
302,1.6844257631026483805894711350448
303,1.6850914042098211383767586068380
304,1.6857548519203587273711323323256
305,1.6864161206466777153252661266651
306,1.6870752246596195467424655836428
307,1.6877321780902967157937769852649
308,1.6883869949319124066381609662942
309,1.6890396890415496904075360941543
310,1.6896902741419306139996080118439
311,1.6903387638231487755777961835333
312,1.6909851715443728999068494097388
313,1.6916295106355228062698017431291
314,1.6922717942989195732360122131142
315,1.6929120356109092199197487550743
316,1.6935502475234612793678403829517
317,1.6941864428657398026776229048587
318,1.6948206343456521450867409886797
319,1.6954528345513726755929205787180
320,1.6960830559528414113586151532420
321,1.6967113109032414958311570381466
322,1.6973376116404516350054891528115
323,1.6979619702884770058654148183932
324,1.6985843988588576141389407250246
325,1.6992049092520558633451662809614
326,1.6998235132588215723555369890838
327,1.7004402225615372622213183205343
328,1.7010550487355409014580022320489
329,1.7016680032504310846415209563804
330,1.7022790974713510759784329697004
331,1.7028883426602531564224472153609
332,1.7034957499771443355575390819867
333,1.7041013304813138067810467379502
334,1.7047050951325403297886143983388
335,1.7053070547922838552715060508489
336,1.7059072202248574498561363157933
337,1.7065056020985823935096928996543
338,1.7071022109869275082417837748183
339,1.7076970573696287825872552236516
340,1.7082901516337953831881505368909
341,1.7088815040749977670302882017431
342,1.7094711248983403914619012712151
343,1.7100590242195186597611071628690
344,1.7106452120658600959370339586226
345,1.7112296983773515680767732571761
346,1.7118124930076500350104115365010
347,1.7123936057250803816306841698993
348,1.7129730462136171545687866856918
349,1.7135508240738537431288032096920
350,1.7141269488239565477987134640650
351,1.7147014299006062239199252278723
352,1.7152742766599256828580944720585
353,1.7158454983783941350315557192259
354,1.7164151042537485892519933743255
355,1.7169831034058731736394578705667
356,1.7175495048776744878789289873643
357,1.7181143176359462258417579866065
358,1.7186775505722223125581179765543
359,1.7192392125036143006644503141273
360,1.7197993121736419642305680495189
361,1.7203578582530488348211199229701
362,1.7209148593406091613773827717029
363,1.7214703239639208895187861991451
364,1.7220242605801896842445773343326
365,1.7225766775770022323894387571229
366,1.7231275832730877024898336182452
367,1.7236769859190702540589122341639
368,1.7242248936982093849862796263764
369,1.7247713147271327495961960765929
370,1.7253162570565571605276302080917
371,1.7258597286720006277335435501234
372,1.7264017374944843910673021907073
373,1.7269422913812249131605451131341
374,1.7274813981263201410609277353323
375,1.7280190654614207281883379331035
376,1.7285553010563976728144203991190
377,1.7290901125199981622649834827651
378,1.7296235074004927902457970064391
379,1.7301554931863159870827677838474
380,1.7306860773066964196300354597202
381,1.7312152671322802362710613357934
382,1.7317430699757442751714222333635
383,1.7322694930924039104339324858461
384,1.7327945436808104998453661537915
385,1.7333182288833420554581287731399
386,1.7338405557867877956476599195575
387,1.7343615314229223279692618841345
388,1.7348811627690733995996774280194
389,1.7353994567486838900352684143281
390,1.7359164202318652351381880236179
391,1.7364320600359425994559988933530
392,1.7369463829259954051758241362937
393,1.7374593956153906911833694518554
394,1.7379711047663078833067424301357
395,1.7384815169902578326009358039166
396,1.7389906388485957725227240891639
397,1.7394984768530278248866320220406
398,1.7400050374661110627180143593332
399,1.7405103271017456957765856765966
400,1.7410143521256636786894128105972
401,1.7415171188559097905945588010558
402,1.7420186335633159314931286097027
403,1.7425189024719714560307115562945
404,1.7430179317596874377788087286667
405,1.7435157275584523294424840538212
406,1.7440122959548851280095111897258
407,1.7445076429906831615417296282280
408,1.7450017746630620007832267653171
409,1.7454946969251903566428558056257
410,1.7459864156866224780098700171882
411,1.7464769368137223099007785007512
412,1.7469662661300829945071714713515
413,1.7474544094169427941841873535492
414,1.7479413724135938602051333319615
415,1.7484271608177881312251002387750
416,1.7489117802861367910663019317144
417,1.7493952364345061342922609155977
418,1.7498775348384070027867920305066
419,1.7503586810333820718294381512029
420,1.7508386805153859675693094571737
421,1.7513175387411621680605394417671
422,1.7517952611286159694415675873076
423,1.7522718530571813533780980612539
424,1.7527473198681853694735057001096
425,1.7532216668652064119857799142878
426,1.7536948993144299976701409657096
427,1.7541670224449995293554128663162
428,1.7546380414493620589200237733858
429,1.7551079614836129620334140841123
430,1.7555767876678323867454924525581
431,1.7560445250864209795558263178961
432,1.7565111787884320384533371919269
433,1.7569767537878954307994768953316
434,1.7574412550641443739683114298635
435,1.7579046875621329023927491349567
436,1.7583670561927519219821749269159
437,1.7588283658331420132558483539139
438,1.7592886213270019652299676718300
439,1.7597478274848937213363857875171
440,1.7602059890845448085598347044610
441,1.7606631108711454096186365814790
442,1.7611191975576436418075697965887
443,1.7615742538250386901700256606818
444,1.7620282843226664143415584973287
445,1.7624812936684867596940453211166
446,1.7629332864493639971001622214666
447,1.7633842672213469604563044778429
448,1.7638342405099425001345452134156
449,1.7642832108103899928371300222552
450,1.7647311825879290602627925645045
451,1.7651781602780679996468904180990
452,1.7656241482868457674908878130106
453,1.7660691509910932595196790533768
454,1.7665131727386902757821079066389
455,1.7669562178488217947325116810534
456,1.7673982906122288532581366418150
457,1.7678393952914587283239186724607
458,1.7682795361211108160957451048298
459,1.7687187173080807224310203700329
460,1.7691569430318022070427746139429
461,1.7695942174444848310255371940517
462,1.7700305446713505207557802064133
463,1.7704659288108676519000039388141
464,1.7709003739349808143983861831457
465,1.7713338840893402271205167960408
466,1.7717664632935279328511409365680
467,1.7721981155412800540825857949135
468,1.7726288448007101252145031471590
469,1.7730586550145259778176386783222
470,1.7734875501002477034610909554609
471,1.7739155339504209611688680125921
472,1.7743426104328299270753019085672
473,1.7747687833907052371395980935168
474,1.7751940566429344268701447603860
475,1.7756184339842637907702278728415
476,1.7760419191855041752663642633060
477,1.7764645159937310380707404012399
478,1.7768862281324834499213758587776
479,1.7773070593019609280373940641435
480,1.7777270131792184958239124904976
481,1.7781460934183585196535269388052
482,1.7785643036507228914629569341067
483,1.7789816474850809371124316402897
484,1.7793981285078158702122823086088
485,1.7798137502831112682418213290423
486,1.7802285163531321557011173893186
487,1.7806424302382075430250945315394
488,1.7810554954370090176922351380682
489,1.7814677154267286155720608677439
490,1.7818790936632538355001674751357
491,1.7822896335813419312234937873641
492,1.7826993385947920687609736398738
493,1.7831082120966153240443036705399
494,1.7835162574592036147319415080216
495,1.7839234780344957585429681209222
496,1.7843298771541439023803942618931
497,1.7847354581296760076108614611680
498,1.7851402242526583365970060267282
499,1.7855441787948554376447608475560
500,1.785947325008389758675388232080
501,1.786349666125896635468271740731
502,1.786751205360682109459755826966
503,1.787151945906875043023920783686
504,1.787551890939581375869573237191
505,1.787951043615033369811151677493
506,1.788349407070739571789529690430
507,1.788746984425633342954138392151
508,1.789143778780219593546181795585
509,1.789539793216717954249102653054
510,1.789935030799208437016442616238
511,1.790329494573772816222987692900
512,1.790723187568635630103117204643
513,1.791116112794303417980424130347
514,1.791508273243702869517587704898
515,1.791899671892318260051373199070
516,1.792290311698326382167282253118
517,1.792680195602730048071236698162
518,1.793069326529491947961814545878
519,1.793457707385665646165797565740
520,1.793845341061526571858486968235
521,1.794232230430699799416375526547
522,1.794618378350288894421405560981
523,1.795003787661002262293255399421
