Eigenstate,Potential Energy
1,0.500000000047099305969588486388355444
2,0.64623093795855443297700955643058864
3,0.73633761060805552705559980125850051
4,0.79966527969525195722249245389498729
5,0.8480465785439874995380045730619459
6,0.8870660019121929660975453690751316
7,0.9197208312395718607963366316806907
8,0.9477838529038853318602328706130086
9,0.9723835659118942578369500811118324
10,0.9942802244124822680845269446856391
11,1.0140093985469073410739452656156400
12,1.0319621836199652766940431559526159
13,1.0484327096975988289603171206946084
14,1.0636476744630692102797141852683411
15,1.0777854590311469945846347366707109
16,1.090988932818561029955047363663099
17,1.103374287005505376303477782367976
18,1.115037285541840601121320681517655
19,1.126057788251072727267567032892700
20,1.136503088464290659628332408450843
21,1.146430419101864102169589524277320
22,1.155888863832184252958723727446736
23,1.164920835008188892043014634449392
24,1.173563231067784878048125914317791
25,1.181848353329774806316804228984916
26,1.189804639801444972695821604746849
27,1.197457258141141381619296524349102
28,1.204828589017309725085248835522789
29,1.211938623310447435579567219391606
30,1.218805290954928345264792270982559
31,1.225444735071721982644230040247926
32,1.231871541965129952446565138102393
33,1.238098935247014039811598069147182
34,1.244138940601444413316525806152152
35,1.250002526363501235407146752821572
36,1.255699724052484110052498086707270
37,1.261239732195699248784432306616494
38,1.266631006148575493040774705928589
39,1.271881336119011681138149719138096
40,1.276997915208037064599962833448074
41,1.281987398962116204802426638758188
42,1.286855957677437179364882020583600
43,1.291609322490035582770667226769281
44,1.296252826117512790182742676990597
45,1.300791438980537384407829070509139
46,1.305229801319182363359212075942985
47,1.309572251825674133029181135301559
48,1.313822853237542926728220205322055
49,1.317985415270501747447018015335643
50,1.32206351521625821654061273820567
51,1.32606051648499674945881813494520
52,1.32997958533392326494535517020905
53,1.33382370599081451558035816304245
54,1.33759569435395299608334897384283
55,1.34129821042635289328069679675888
56,1.34493376962210797151545285762987
57,1.34850475306549332215760164310171
58,1.35201341698865571958126636493303
59,1.35546190132097337869951845964124
60,1.35885223755214140144488380589205
61,1.36218635594147497207855936056882
62,1.36546609213762135609767528850917
63,1.36869319326562986848893760730383
64,1.37186932353201649715475483761073
65,1.37499606939292502736492655230817
66,1.37807494432563917403265167048002
67,1.38110739323943793728764881198786
68,1.38409479655803023601047241285089
69,1.38703847400249220326528396311864
70,1.38993968810070225930391791742570
71,1.39279964744667037408324714692693
72,1.39561950973085968885744679756963
73,1.39840038456054566000359074899762
74,1.40114333608743903968582556204970
75,1.40384938545816790686048045282510
76,1.40651951310176440536894014238978
77,1.40915466086699944744711663599611
78,1.41175573402124284279992962276611
79,1.41432360312147949339696350396226
80,1.41685910576717416850085173646354
81,1.41936304824382803296341974960000
82,1.42183620706530865127089256811430
83,1.42427933042234645602979772926829
84,1.42669313954396637786902121944515
85,1.42907832997806405755976396083347
86,1.43143557279682019576563605368253
87,1.43376551573218912503545315350420
88,1.43606878424627431091533227001657
89,1.43834598254101998689526175112137
90,1.44059769451130491117597930966925
91,1.44282448464520278119134443167890
92,1.44502689887488554428209132102769
93,1.44720546538138358786135000987604
94,1.44936069535617386367410424331744
95,1.45149308372234584672380345447421
96,1.45360310981789340732277160981094
97,1.45569123804349633261369456187984
98,1.45775791847698235961441604509647
99,1.45980358745650710964949413303470
100,1.46182866813434297361559837128480
101,1.46383357100303869337357053516941
102,1.46581869439558580983877709504010
103,1.46778442496112023472846113981296
104,1.46973113811757993821466477516496
105,1.47165919848264667097399191275179
106,1.47356896028420887488213543372915
107,1.47546076775150485464550772351842
108,1.47733495548802604310794748565256
109,1.47919184882719159943646960434040
110,1.48103176417174315926474165483910
111,1.48285500931774269467471196132143
112,1.48466188376400700826318300164173
113,1.48645267900775684974613204883404
114,1.48822767882720988579731254199023
115,1.48998715955180630531494795471866
116,1.49173139032070751066238667709149
117,1.49346063333017663242162409060434
118,1.49517514407040857409307626619431
119,1.49687517155234357945887473060487
120,1.49856095852497247309190029253444
121,1.50023274168360345724842541651492
122,1.50189075186954143524976096341917
123,1.50353521426159863852605964075997
124,1.50516634855983765468700004328699
125,1.50678436916191838772085698615123
126,1.50838948533240528412607238095782
127,1.50998190136537058089282704123729
128,1.51156181674060674406263659159692
129,1.51312942627374919335552211418613
130,1.51468492026059202648729976881776
131,1.51622848461586405268138833384373
132,1.51776030100671746767907303036554
133,1.51928054698116972096750920127920
134,1.52078939609172784998680579760298
135,1.52228701801440644773461936516920
136,1.52377357866334674265610855598850
137,1.52524924030123096176423125788902
138,1.52671416164567253594414862615438
139,1.52816849797176060049034489615237
140,1.52961240121092179795662162123899
141,1.53104602004625783290918430601732
142,1.53246950000450915490626478664021
143,1.53388298354478649585814918766165
144,1.53528661014420480828469778738115
145,1.53668051638054996322836849377987
146,1.53806483601210069782984710404057
147,1.53943970005472009960751446982510
148,1.54080523685633195644843230337188
149,1.54216157216888377324466565042747
150,1.54350882921790009603116088650349
151,1.54484712876972205785824233626892
152,1.54617658919652344554651734027027
153,1.54749732653919223699587403531586
154,1.54880945456816150826802776562254
155,1.55011308484226794641239955228260
156,1.55140832676571583437544253345419
157,1.55269528764321755457262146151582
158,1.55397407273338242920092807176085
159,1.5552447853004175701010827381385
160,1.5565075266642070756832411790404
161,1.5577623962488280710112719595590
162,1.5590094916295630521210806664024
163,1.5602489085784633878462834879807
164,1.5614807411085186157207593385821
165,1.5627050815164801321497439730213
166,1.5639220204243897924124744170817
167,1.5651316468198606527901648147496
168,1.5663340480951525437074401113607
169,1.5675293100850875359518183353229
170,1.5687175171038450430618829898748
171,1.5698987519806767543189836351741
172,1.5710730960945792649752658158773
173,1.5722406294079598060231951340935
174,1.5734014304993309169951722299261
175,1.5745555765950680467010529202180
176,1.5757031436002597882309494265899
177,1.5768442061286840087356149595986
178,1.5779788375319390283552050919608
179,1.5791071099277562932172538545826
180,1.5802290942275254888774050292963
181,1.5813448601630547427641400252143
182,1.5824544763125936109874270207174
183,1.5835580101261418987605027928226
184,1.5846555279500685559454161744964
185,1.5857470950510624558208862420964
186,1.5868327756394360256662303615275
187,1.5879126328918055296340210605521
188,1.5889867289731634402004260126851
189,1.5900551250583666292557343257721
190,1.5911178813530560298843620129737
191,1.5921750571140269913574526180388
192,1.5932267106690667095119367458161
193,1.5942728994362770363340472286907
194,1.5953136799428960094995898451441
195,1.5963491078436360341989730944032
196,1.5973792379385524091152776317002
197,1.5984041241904565718450116437341
198,1.5994238197418882257081965936923
199,1.6004383769316591817699421601376
200,1.6014478473109828562401980212509
201,1.6024522816592003996368043627193
202,1.6034517299991168338299822922109
203,1.6044462416119578516558732582858
204,1.6054358650519588939678524879838
205,1.6064206481605964694436284715670
206,1.6074006380804747358521129958987
207,1.6083758812688732134120074397560
208,1.6093464235109698516536037815740
209,1.6103123099327451926182784081568
210,1.6112735850135791260017240445206
211,1.6122302925985475952042327077403
212,1.6131824759104294814172927966548
213,1.6141301775614280436418840264178
214,1.6150734395646218903289275934373
215,1.6160123033451446888743543985414
216,1.6169468097511075674265543444998
217,1.6178769990642681680490111465985
218,1.6188029110104553236892324759702
219,1.6197245847697526318902281098530
220,1.6206420589864534333728452999017
221,1.6215553717787850977799960706970
222,1.6224645607484198139482775408256
223,1.6233696629897654455392148433722
224,1.6242707150990515113288434770505
225,1.6251677531832128466989543039139
226,1.6260608128685744842711459441228
227,1.6269499293093463965312513334327
228,1.6278351371959299106438769390175
229,1.6287164707630429476015231448405
230,1.6295939637976687719450196963811
231,1.6304676496468300413193283751685
232,1.6313375612251985647778537697222
233,1.6322037310225357553331635234334
234,1.6330661911109799228125218790205
235,1.6339249731521735781113570582126
236,1.6347801084042404476056553272405
237,1.6356316277286158178428775233777
238,1.6364795615967319415151601643874
239,1.6373239400965639402864555191986
240,1.6381647929390383578831264965439
241,1.6390021494643086447872767456648
242,1.6398360386479004304743023613971
243,1.6406664891067306139591772855582
244,1.6414935291050019608771649971930
245,1.6423171865599775802010807874309
246,1.6431374890476377991526036393869
247,1.6439544638082208180830001501646
248,1.6447681377516547258682111320923
249,1.6455785374628758443232825615583
250,1.6463856892070437857473901444343
251,1.6471896189346511230164810802559
252,1.6479903522865304701287214608328
253,1.6487879145987640448112647501218
254,1.6495823309074953694513013443377
255,1.6503736259536469897859324643706
256,1.6511618241875442961242607228539
257,1.6519469497734518378510971336629
258,1.6527290265940185752778861579769
259,1.6535080782546388716969255242644
260,1.6542841280877296113503904345457
261,1.6550571991569237563772653264752
262,1.6558273142611850674770423704495
263,1.6565944959388428381839522620538
264,1.6573587664715520929165342049686
265,1.6581201478881777733418903310806
266,1.6588786619686050800991903096498
267,1.6596343302474791824266125655805
268,1.6603871740178743287032179407478
269,1.6611372143348966271169911435617
270,1.6618844720192162198965110964720
271,1.6626289676605381343544165692681
272,1.6633707216210057896007118144013
273,1.6641097540385446013322285729100
274,1.6648460848301428930091412363748
275,1.6655797336950739882908874376271
276,1.6663107201180577623771274848119
277,1.6670390633723691355607113195898
278,1.6677647825228852629335278277575
279,1.6684878964290829227076966772735
280,1.6692084237479781960152035896173
281,1.6699263829370163270069576204367
282,1.6706417922569092595178051968331
283,1.6713546697744240627417090001110
284,1.6720650333651194024510236433853
285,1.6727729007160368650192842743650
286,1.6734782893283431589913590530485
287,1.6741812165199282534913006238547
288,1.6748816994279558552436037858639
289,1.6755797550113708722712820528428
290,1.6762754000533645967980465171342
291,1.6769686511637954482951757888435
292,1.6776595247815681615796807838234
293,1.6783480371769753257391838703640
294,1.6790342044539963107990519345771
295,1.6797180425525556692772012830194
296,1.6803995672507485981886916340669
297,1.6810787941670233932263567270030
298,1.6817557387623302118702302375708
299,1.6824304163422329482839963832048
300,1.6831028420589859706034075263452
301,1.6837730309135761320552989901418
302,1.6844409977577321488398576988704
303,1.6851067572958985179059752096143
304,1.6857703240871775521500845290321
305,1.6864317125472409615662109249375
306,1.6870909369502102435683282895889
307,1.6877480114305030644611989072775
308,1.6884029499846531105092060272766
309,1.6890557664730994978927571450339
310,1.6897064746219460767197573762463
311,1.6903550880246942240200748229885
312,1.6910016201439466388778001064207
313,1.6916460843130835324749380368983
314,1.6922884937379130173437454825872
315,1.6929288614982950154963917967164
316,1.6935672005497400610985795539221
317,1.6942035237249805363176661368352
318,1.6948378437355196916164059344645
319,1.6954701731731555920809174616358
320,1.6961005245114799910673381682625
321,1.6967289101073560501290406166059
322,1.6973553422023710196831963183079
323,1.6979798329242673944834464108460
324,1.6986023942883515210672196379468
325,1.6992230381988814191873257376071
326,1.6998417764504320544840792470882
327,1.7004586207292408831827209591143
328,1.7010735826145308580416689475924
329,1.7016866735798158704403862810008
330,1.7022979049941850603044404144663
331,1.7029072881235674324752855618432
332,1.7035148341319778407812567379206
333,1.7041205540827447183797610909923
334,1.7047244589397177384092756643191
335,1.7053265595684597198996485659776
336,1.7059268667374188370081597774040
337,1.7065253911190840038448421088731
338,1.7071221432911244937553186543213
339,1.7077171337375098575860438924106
340,1.7083103728496162322913978784084
341,1.7089018709273147534778581553566
342,1.7094916381800445690552159048120
343,1.7100796847278700918030842312527
344,1.7106660206025224845807654717144
345,1.7112506557484271975359469813880
346,1.7118336000237150321284802248920
347,1.7124148632012202973505690716495
348,1.7129944549694628698903658672440
349,1.7135723849336177031870477766147
350,1.7141486626164693277429608965090
351,1.7147232974593534303212025574567
352,1.7152962988230851944198752063411
353,1.7158676759888736864285715076424
354,1.7164374381592237019707858865346
355,1.7170055944588254377448995788604
356,1.7175721539354301986818162496458
357,1.7181371255607153794946978308863
358,1.7187005182311379646590143424312
359,1.7192623407687722920011984936331
360,1.7198226019221410178535910653325
361,1.7203813103670310286862579814329
362,1.7209384747073007808573761279937
363,1.7214941034756736641378469936171
364,1.7220482051345224130483155550107
365,1.7226007880766428024212870500136
366,1.7231518606260155049037883529298
367,1.7237014310385590024585762463304
368,1.7242495075028703406425057699453
369,1.7247960981409583582558493767184
370,1.7253412110089651055906558064281
371,1.7258848540978783046387405069166
372,1.7264270353342338077919760262143
373,1.7269677625808080218064145048020
374,1.7275070436373046055638796368379
375,1.7280448862410261332592244494293
376,1.7285812980675421792862282793130
377,1.7291162867313456140927204395416
378,1.7296498597865002784759415927984
379,1.7301820247272818761817454027245
380,1.7307127889888088416349870964669
381,1.7312421599476660583007198324759
382,1.7317701449225185459107439372637
383,1.7322967511747197912827464831954
384,1.7328219859089096865002229412206
385,1.7333458562736056957762337342237
386,1.7338683693617879097212088019027
387,1.7343895322114737364217546849282
388,1.7349093518062861661993135848282
389,1.7354278350760162848036704717152
390,1.7359449888971772242205611989282
391,1.7364608200935498681048814034092
392,1.7369753354367239202901185804733
393,1.7374885416466318099342517743738
394,1.7380004453920740144739257536973
395,1.7385110532912386573357058812888
396,1.7390203719122150313490637979622
397,1.7395284077735006778476091158264
398,1.7400351673445020296730036320247
399,1.7405406570460271839531505703469
400,1.7410448832507751046961291374940
401,1.7415478522838173042022024519149
402,1.7420495704230727485969930807654
403,1.7425500438997788083124590869140
404,1.7430492788989561466933729357391
405,1.7435472815598650122664091754026
406,1.7440440579764590437976587845540
407,1.7445396141978337049518336535293
408,1.7450339562286668518442211334504
409,1.7455270900296542946587189042253
410,1.7460190215179428679099028619808
411,1.7465097565675552694689904592536
412,1.7469993010098102510444727419528
413,1.7474876606337392392839056630850
414,1.7479748411864958114487097266282
415,1.7484608483737623097337019662151
416,1.7489456878601500239760391884997
417,1.7494293652695957913531327359793
418,1.7499118861857521764232877305491
419,1.7503932561523755101370635424327
420,1.7508734806737067698630529982224
421,1.7513525652148492527326289526545
422,1.7518305152021423240334222081775
423,1.7523073360235290769171525501326
424,1.7527830330289215172773064948730
425,1.7532576115305596532871668998988
426,1.7537310768033680965749805257635
427,1.7542034340853076598008243188620
428,1.7546746885777219644629037367159
429,1.7551448454456829714625559462798
430,1.7556139098183282966775015098268
431,1.7560818867891978153439178084171
432,1.7565487814165667049106815263840
433,1.7570145987237702644157392984479
434,1.7574793436995316084746257937034
435,1.7579430212982800597124207749144
436,1.7584056364404681407911687794732
437,1.7588671940128853275623892134478
438,1.7593276988689675455764163304230
439,1.7597871558291030914210840373316
440,1.7602455696809360502725445175255
441,1.7607029451796643696891329645906
442,1.7611592870483361534691652544741
443,1.7616145999781438234509558640215
444,1.7620688886287107688077622568913
445,1.7625221576283798136867791064004
446,1.7629744115744945277298053562658
447,1.7634256550336805488392249435581
448,1.7638758925421201365898599408147
449,1.7643251286058277969904455595444
450,1.7647733677009191312432729109252
451,1.7652206142738804118045504780533
452,1.7656668727418317273065003529851
453,1.7661121474927894396306788270219
454,1.7665564428859243423026545328231
455,1.7669997632518191443043166997686
456,1.7674421128927205765348772377236
457,1.7678834960827908168594706301918
458,1.7683239170683546298819479383896
459,1.7687633800681447356092885589665
460,1.7692018892735450495990816822731
461,1.7696394488488296445676126926602
462,1.7700760629314006467657018438717
463,1.7705117356320236711587689101856
464,1.7709464710350589565824300135913
465,1.7713802731986921698840821518901
466,1.7718131461551620100268854376395
467,1.7722450939109838929545924499461
468,1.7726761204471747331507472240410
469,1.7731062297194712988845861628157
470,1.7735354256585496659848818411299
471,1.7739637121702400375583286050479
472,1.7743910931357412275783269068121
473,1.7748175724118301595673538028337
474,1.7752431538310738846916262642469
475,1.7756678412020330423602125277913
476,1.7760916383094692774714492072949
477,1.7765145489145469476518355621469
478,1.7769365767550337968298423438978
479,1.7773577255454994848888857778411
480,1.7777779989775123683498995229385
481,1.7781974007198330833335995057707
482,1.7786159344186084999734381945528
483,1.7790336036975614286662748493752
484,1.7794504121581788983137321704990
485,1.7798663633799004838392715051643
486,1.7802814609203012681849513883968
487,1.7806957083152762879965289619572
488,1.7811091090792210599146385800424
489,1.7815216667052114160094775043837
490,1.7819333846651805118544900822192
491,1.7823442664100951418977684847751
492,1.7827543153701299507009573740382
493,1.7831635349548395154474630477431
494,1.7835719285533293941607379151794
495,1.7839794995344243325361517755382
496,1.7843862512468368742285375329850
497,1.7847921870193320605408821724984
498,1.7851973101608921652063516170344
499,1.7856016239608789620297456910007
500,1.786005131689195656315793012044
501,1.786407836596444226563494551347
502,1.786809741914085632053399053762
503,1.787210850854594354910129594871
504,1.787611166611615120949223018735
505,1.788010692360114647245150835917
506,1.788409431256534147000871177481
507,1.788807386438940440240581026906
508,1.789204561027175310794842736247
509,1.789600958123001340991074472076
510,1.789996580810250277813556293222
511,1.790391432154967162162430676466
512,1.790785515205554121960820941289
513,1.791178832992912445428364783241
514,1.791571388530583611574493046970
515,1.791963184814889652821853533332
516,1.792354224825071060775317345572
517,1.792744511523423310576721585336
518,1.793134047855433789947337647831
519,1.793522836749915915601716009971
520,1.793910881119143294793654637794
521,1.794298183858980728001718442276
522,1.794684747849016329754492245552
523,1.795070575952691205573774680243
