Eigenstate,Potential Energy
1,0.500000000013199343122956474696138006
2,0.64623093773727304739029822287779183
3,0.73633760995805888033506504247666208
4,0.79966527834138192908875311642662333
5,0.8480465761988048390875005059429575
6,0.8870659982832261727234696517313050
7,0.9197208260319882561775638621294302
8,0.9477838458216051903577254449685433
9,0.9723835566581090462454771641719629
10,0.9942802126899178300061932362752109
11,1.0140093840579670128032851106665172
12,1.0319621660668118179535834628741397
13,1.0484326887822030441359375426838278
14,1.0636476498872393999036983291847539
15,1.0777854304965468419769107117544036
16,1.090988900026720223292628346469685
17,1.103374249657825505054126908170432
18,1.115037243339597883207592863390036
19,1.126057740895418552906221449062094
20,1.136503035656250594811760523181485
21,1.146430360542335782019484567273104
22,1.155888799221934459520767970572360
23,1.164920764047850022403356484033781
24,1.173563153457850949360091098226112
25,1.181848268770597103874516452050630
26,1.189804547993227419080192157294218
27,1.197457158783935685074992965316560
28,1.204828481811010351028884091895304
29,1.211938507954786434760185884176855
30,1.218805167149470064443085012251572
31,1.225444602515857677942964655784523
32,1.231871400358072321211489591965657
33,1.238098784287791683532041304649474
34,1.244138779988896241620972799080193
35,1.250002355796270819179610456601428
36,1.255699543229013990171854606493641
37,1.261239540814225205769166117221493
38,1.266630803907120781910726636228975
39,1.271881122715381235026564430015981
40,1.276997690339811670020989819219639
41,1.281987162326646650969223353611484
42,1.286855708971838383536745903751442
43,1.291609061411180693265268877250843
44,1.296252552362027268406809976189857
45,1.300791152244793067024854529005970
46,1.305229501299291505516871874680172
47,1.309571938217483433405035182519052
48,1.313822525736627535013982883202005
49,1.317985073572159254774838274889187
50,1.32206315901550262925558192156938
51,1.32606014547655244655724499635652
52,1.32997919921221893942599018513156
53,1.33382330444997709989354415778142
54,1.33759527708780157180941473098681
55,1.34129777712839258512251835792147
56,1.34493331998552382564980917720934
57,1.34850428678314416895487427460798
58,1.35201293375306802067223534322593
59,1.35546140082433505834120750995984
60,1.35885171948629566211362801771444
61,1.36218581999791409419759470234592
62,1.36546553800748048178791928751335
63,1.36869262063968076921524373621042
64,1.37186873210066132512521198103586
65,1.37499545884619005052756088081881
66,1.37807431435316849450213123908584
67,1.38110674353048719302394161764509
68,1.38409412680146028556181271374491
69,1.38703778388676279337894699895626
70,1.38993897731386567520061335082539
71,1.39279891567636507218335559654814
72,1.39561875666430391174098465719826
73,1.39839960988453103337940234284393
74,1.40114253948832415114000425474178
75,1.40384856662187186614865157968801
76,1.40651867171376038601227559116879
77,1.40915379661230820938727130432382
78,1.41175484658442623586385917686176
79,1.41432269218663394131850363796893
80,1.41685817101792413324222250818585
81,1.41936208936331945907608203180355
82,1.42183522373620239003180103736298
83,1.42427832232681166908581383188850
84,1.42669210636367392011908256619168
85,1.42907727139417983900132090287172
86,1.43143448848999852202906706375612
87,1.43376440538256601632716510300943
88,1.43606764753346079908760598977069
89,1.43834481914409539035820483526364
90,1.44059650410881008736432970397062
91,1.44282326691513335629623552867334
92,1.44502565349468511995546901305446
93,1.44720419202793692459818083310623
94,1.44935939370580004057509686820389
95,1.45149175345079139733890749503329
96,1.45360175060032543127344293064078
97,1.45568984955449558268933855624408
98,1.45775650039053630403630608759556
99,1.45980213944600296919288246890730
100,1.46182718987256073327858477794719
101,1.46383206216214408827883410150110
102,1.46581715464712328505199496268047
103,1.46778285397600587867498951648310
104,1.46972953556609438937349574267497
105,1.47165756403442799752591958932035
106,1.47356729360824542698655653258194
107,1.47545906851612808901797548138967
108,1.47733322336090331956828016398525
109,1.47919008347531894909470858681294
110,1.48102996526143802401002902034181
111,1.48285317651463663762961697206970
112,1.48466001673303839486364909563265
113,1.48645077741316349910478617707694
114,1.48822574233252169200535061836161
115,1.48998518781983782833545228428589
116,1.49172938301355053646529396784406
117,1.49345859010919270200812151003467
118,1.49517306459622148105470286015370
119,1.49687305548483183571395341122230
120,1.49855880552326174243929549296425
121,1.50023055140605895637617436873235
122,1.50188852397376030183330110755252
123,1.50353294840440226604824883086134
124,1.50516404439726399360933207095855
125,1.50678202634921421263261001667571
126,1.50838710352401842649528972074073
127,1.50997948021494212704040267921772
128,1.51155935590096319797774759291575
129,1.51312692539689460396798167088462
130,1.51468237899770007900947551137964
131,1.51622590261727012362947105561874
132,1.51775767792191064318025387981704
133,1.51927788245878477795719695359082
134,1.52078668977953719989651617937604
135,1.52228426955931204226820597028619
136,1.52377078771137194124927401077152
137,1.52524640649751236031868645735712
138,1.52671128463445175642495696755785
139,1.52816557739637604097163516972756
140,1.52960943671380034269768044045559
141,1.53104301126890652203980242437157
142,1.53246644658750681329667488886725
143,1.53387988512777532074575026320792
144,1.53528346636588191522629088684568
145,1.53667732687865888994327985360482
146,1.53806160042342286549581722006058
147,1.53943641801506623116767372685142
148,1.54080190800053345148434170393225
149,1.54215819613078403896657117832569
150,1.54350540563034583393330303901184
151,1.54484365726455450558297418165925
152,1.54617306940456957349768582395599
153,1.54749375809025589923792380940949
154,1.54880583709101454724364409866893
155,1.55010941796464125100762218038510
156,1.55140461011429035085699943280819
157,1.55269152084361524991891145341010
158,1.55397025541015720634355119724946
159,1.5552409170770461345900713134353
160,1.5565036071630797532850022228457
161,1.5577584250912395757440890264637
162,1.5590054684357032042288380207899
163,1.5602448329674077812071161023826
164,1.5614766126982192341826487124867
165,1.5627008999237559142809478559390
166,1.5639177852649171441504389453752
167,1.5651273577081639074680493482575
168,1.5663297046445943689326620054459
169,1.5675249119078592868069935274976
170,1.5687130638109570610933739147698
171,1.5698942431819486117741648573291
172,1.5710685313986299537445200757590
173,1.5722360084221978707381204790452
174,1.5733967528299445317296448347071
175,1.5745508418470150347168115175018
176,1.5756983513772575842045622725801
177,1.5768393560331995628986020974962
178,1.5779739291651786519742355778309
179,1.5791021428896554448359750845677
180,1.5802240681167385007365412115987
181,1.5813397745769444868109999710850
182,1.5824493308472211038810506871835
183,1.5835528043762558452729105754122
184,1.5846502615090948301543600654740
185,1.5857417675110935194836268083227
186,1.5868273865912202831588783582395
187,1.5879071819247366188348091570641
188,1.5889812156752694586899460900742
189,1.5900495490162992952012541755547
190,1.5911122421520797769695753497553
191,1.5921693543380079971132252143947
192,1.5932209439004618563974273917768
193,1.5942670682561228049117735389713
194,1.5953077839307973030418267209045
195,1.5963431465777549340565830752123
196,1.5973732109955968601741097684770
197,1.5983980311456689973882604236561
198,1.5994176601690340709972293503822
199,1.6004321504030153856490339032724
200,1.6014415533973262500645657548743
201,1.6024459199297960328166112218266
202,1.6034453000217062252757286742217
203,1.6044397429527471664046641364983
204,1.6054292972756070442623664338259
205,1.6064140108302031395292738704995
206,1.6073939307575683297503089485378
207,1.6083691035133987249206824962424
208,1.6093395748812766558187299239917
209,1.6103053899855747579128906152001
210,1.6112665933040526464414802291067
211,1.6122232286801535416211920961444
212,1.6131753393350110711060308640541
213,1.6141229678791706275840511227509
214,1.6150661563240402571951199169519
215,1.6160049460930702849938258410066
216,1.6169393780326756319076025687827
217,1.6178694924229047822250123271910
218,1.6187953289878643740566002497286
219,1.6197169269059026856966954451986
220,1.6206343248195645260062641963068
221,1.6215475608453154310988516238140
222,1.6224566725830523646871914698647
223,1.6233616971253944829136554184267
224,1.6242626710667690229546146404997
225,1.6251596305122948719330022702333
226,1.6260526110864673540716041482294
227,1.6269416479416528789251317045986
228,1.6278267757663952608819204359943
229,1.6287080287935408620700702727529
230,1.6295854408081872448958424484353
231,1.6304590451554571234681856077366
232,1.6313288747481080228134527490185
233,1.6321949620739726313678933488554
234,1.6330573392032459927967862024846
235,1.6339160377956127082231097632931
236,1.6347710891072238476166588100964
237,1.6356225239975271904529259311294
238,1.6364703729359525266349225232429
239,1.6373146660084574532394856361758
240,1.6381554329239358204861484608401
241,1.6389927030204931082577875657121
242,1.6398265052715915891034720993010
243,1.6406568682920693084761836256126
244,1.6414838203440345704211144752535
245,1.6423073893426403018042475887094
246,1.6431276028617408136275449084703
247,1.6439444881394323411948729857855
248,1.6447580720834849436610629882655
249,1.6455683812766607314578357936908
250,1.6463754419819288056952628269376
251,1.6471792801475748089436825188596
252,1.6479799214122078852889288199265
253,1.6487773911096701212568861576235
254,1.6495717142738481238571705100236
255,1.6503629156433906151683176339882
256,1.6511510196663321282238573756493
257,1.6519360505046291949364762261932
258,1.6527180320386054701117061479130
259,1.6534969878713125943942749380266
260,1.6542729413328071818441821540784
261,1.6550459154843442451922906412480
262,1.6558159331224917835000136114972
263,1.6565830167831653821025047497567
264,1.6573471887455882749857285759440
265,1.6581084710361753941222578431613
266,1.6588668854323435727954478115124
267,1.6596224534662511154411591243340
268,1.6603751964284667670031339810406
269,1.6611251353715723509982794605499
270,1.6618722911136947997130488484677
271,1.6626166842419768597642541272473
272,1.6633583351159804518650967177982
273,1.6640972638710301271875585464083
274,1.6648334904214938286150970395220
275,1.6655670344640048317415056579739
276,1.6662979154806231432444736855503
277,1.6670261527419438399239492678493
278,1.6677517653101441023289629106203
279,1.6684747720419804454174539333681
280,1.6691951915917282390946339869750
281,1.6699130424140714074329526901088
282,1.6706283427669398028216440674642
283,1.6713411107142974674719854095469
284,1.6720513641288789387932773082059
285,1.6727591206948804058795857752781
286,1.6734643979106017418324903407636
287,1.6741672130910444711904470758448
288,1.6748675833704620742204188956735
289,1.6755655257048672761156485758588
290,1.6762610568744970536062995960378
291,1.6769541934862331999029840169858
292,1.6776449519759813328590781690174
293,1.6783333486110122521060891220139
294,1.6790193994922606820558390302677
295,1.6797031205565834878942198032055
296,1.6803845275789849501055597802807
297,1.6810636361747990292319047389642
298,1.6817404618018379375979174006246
299,1.6824150197625038208360056811030
300,1.6830873252058652997939873018877
301,1.6837573931296992842399533005362
302,1.6844252383825001512735688039752
303,1.6850908756654534615493162170121
304,1.6857543195343777908175627299453
305,1.6864155844016361052863075280559
306,1.6870746845380159440000249078711
307,1.6877316340745755901853304908815
308,1.6883864470044637099883900230106
309,1.6890391371847085478658798062903
310,1.6896897183379770137723548120373
311,1.6903382040543072570431627921162
312,1.6909846077928122401014874599679
313,1.6916289428833557047350477728597
314,1.6922712225282023352121498615473
315,1.6929114598036414378763773203301
316,1.6935496676615855128584783490364
317,1.6941858589311412565065074269772
318,1.6948200463201583457756500579612
319,1.6954522424167531461359110262041
320,1.6960824596908073442523187809692
321,1.6967107104954454243682224972129
322,1.6973370070684871028188041282559
323,1.6979613615338782347103975071896
324,1.6985837859030991699013004797253
325,1.6992042920765523202614142981299
326,1.6998228918449271754333072423895
327,1.7004395968905455878465562218072
328,1.7010544187886845161759764967544
329,1.7016673690088812020985387686279
330,1.7022784589162172120109466357631
331,1.7028876997725827822802609220055
332,1.7034951027379225292475514215179
333,1.7041006788714629025181274855599
334,1.7047044391329195655397977027547
335,1.7053063943836890183798560490507
336,1.7059065553880205207303481834165
337,1.7065049328141711873654107452907
338,1.7071015372355453148806764700068
339,1.7076963791318140041995390443127
340,1.7082894688900211701643091524768
341,1.7088808168056716517675990463945
342,1.7094704330838039201511324294841
343,1.7100583278400470221388633966932
344,1.7106445111016617529890463799533
345,1.7112289928085678776770417727566
346,1.7118117828143548754814645739537
347,1.7123928908872797732097192328477
348,1.7129723267112488787645728192016
349,1.7135500998867869599539010182845
350,1.7141262199319914108616759026667
351,1.7147006962834734933617922788584
352,1.7152735382972863361175782712195
353,1.7158447552498389754230798957294
354,1.7164143563387978523406502511349
355,1.7169823506839761313967677269246
356,1.7175487473282090506032707920547
357,1.7181135552382185418270978066809
358,1.7186767833054663654946207656251
359,1.7192384403469915047544434012652
360,1.7197985351062407570030213838274
361,1.7203570762538842676279308148202
362,1.7209140723886224875544211137572
363,1.7214695320379791501945939627726
364,1.7220234636590852917794789570857
365,1.7225758756394525514277185608879
366,1.7231267762977346286074408868372
367,1.7236761738844797899889416984494
368,1.7242240765828712144046057322482
369,1.7247704925094598084491626902150
370,1.7253154297148852058837824950406
371,1.7258588961845878041411223852719
372,1.7264008998395107943991841773244
373,1.7269414485367921519280484973161
374,1.7274805500704508951777829885151
375,1.7280182121720583051661448375911
376,1.7285544425114055613704254561612
377,1.7290892486971595833231066758715
378,1.7296226382775102453117463105611
379,1.7301546187408108039735578513812
380,1.7306851975162082955385957446676
381,1.7312143819742667781459181427642
382,1.7317421794275805373916747370215
383,1.7322685971313819297594129045734
384,1.7327936422841388276217375719472
385,1.7333173220281452870564919575594
386,1.7338396434501060971180911770914
387,1.7343606135817109598875648527052
388,1.7348802394002022380864013947076
389,1.7353985278289369449259556448436
390,1.7359154857379401652835262616071
391,1.7364311199444502251304613816750
392,1.7369454372134592175731966667700
393,1.7374584442582463589773484847783
394,1.7379701477409027562547202754687
395,1.7384805542728504421686854734550
396,1.7389896704153553295077904181272
397,1.7394975026800337140177365191560
398,1.7400040575293523342079303965907
399,1.7405093413771205538055139542357
400,1.7410133605889789667957737388378
401,1.7415161214828804739499161991303
402,1.7420176303295645760378293984247
403,1.7425178933530277044464785444484
404,1.7430169167309874822744552061216
405,1.7435147065953383813287942950915
406,1.7440112690326048840388340209722
407,1.7445066100843892669878725978852
408,1.7450007357478115092371188470840
409,1.7454936519759441864989238441113
410,1.7459853646782448656180436829106
411,1.7464758797209802593588936335363
412,1.7469652029276457240682881988065
413,1.7474533400793811792529257502208
414,1.7479402969153798728972361286978
415,1.7484260791332942764639368678213
416,1.7489106923896355391899845702468
417,1.7493941423001693501447668490073
418,1.7498764344403053712661440368830
419,1.7503575743454845198660679764192
420,1.7508375675115590825069884628036
421,1.7513164193951696124126777236476
422,1.7517941354141178919949208190146
423,1.7522707209477337966158750062032
424,1.7527461813372396732896477104866
425,1.7532205218861086136619669177118
426,1.7536937478604202280867261706383
427,1.7541658644892114054072920307010
428,1.7546368769648220721083220561033
429,1.7551067904432398632032819514427
430,1.7555756100444365669405282812047
431,1.7560433408527038469590010784844
432,1.7565099879169853913839953752447
433,1.7569755562512008267363098670807
434,1.7574400508345724945670571275020
435,1.7579034766119429144679453321668
436,1.7583658384940908344214257912462
437,1.7588271413580440298350747636305
438,1.7592873900473878332977062509042
439,1.7597465893725700763351608060397
440,1.7602047441112035143519335889579
441,1.7606618590083628945837863232738
442,1.7611179387768802306794502671765
443,1.7615729880976379315782918143674
444,1.7620270116198544040257347775857
445,1.7624800139613714593556484751377
446,1.7629319997089345488585863657781
447,1.7633829734184729968742210445931
448,1.7638329396153734497779631025804
449,1.7642819027947543813349552968782
450,1.7647298674217338068305745516066
451,1.7651768379316977090390492259309
452,1.7656228187305620173453237812535
453,1.7660678141950338830585604305016
454,1.7665118286728686398319412632211
455,1.7669548664831260730267696914900
456,1.7673969319164212949848701088828
457,1.7678380292351749218808468794627
458,1.7682781626738589480148043961454
459,1.7687173364392408314339684596289
460,1.7691555547106254331892341277610
461,1.7695928216400926599144574247101
462,1.7700291413527340227409192251015
463,1.7704645179468867162797130631427
464,1.7708989554943633785395874270217
465,1.7713324580406815004764683129575
466,1.7717650296052896158320912397289
467,1.7721966741817895517383172051547
468,1.7726273957381597556869496237099
469,1.7730571982169721755218272522773
470,1.7734860855356102169522163317042
471,1.7739140615864820456523707061961
472,1.7743411302372335315173399155242
473,1.7747672953309561859341917432267
474,1.7751925606863975960191646664721
475,1.7756169300981632785319740955175
476,1.7760404073369224672280414169579
477,1.7764629961496081665997716074900
478,1.7768847002596161479500427643782
479,1.7773055233670017771349246592726
480,1.7777254691486750685095785319678
481,1.7781445412585925159040786731416
482,1.7785627433279492693672695746962
483,1.7789800789653670376255414771643
484,1.7793965517570805359609905292548
485,1.7798121652671239563330309131273
486,1.7802269230375120444843257821198
487,1.7806408285884226327594186190643
488,1.7810538854183752250680029884131
489,1.7814660970044088620369596071405
490,1.7818774668022571293388061132851
491,1.7822879982465224433392641576594
492,1.7826976947508482021085662417298
493,1.7831065597080887766603912528885
494,1.7835145964904784363115238912848
495,1.7839218084497974005080428627383
496,1.7843281989175382613873917951302
497,1.7847337712050684624423996280909
498,1.7851385286037927783834407188010
499,1.7855424743853132933601913345214
500,1.785945611801589007852391643779
501,1.786347944085090820075083485358
502,1.786749474448959336883058009530
503,1.787150206087156982099878038879
504,1.787550142174622245905329152493
505,1.787949285867418922538208539091
506,1.788347640302886066190017633702
507,1.788745208599786512900587530537
508,1.789141993858453608194367806497
509,1.789537999160934371123661412620
510,1.789933227571135147727671256246
511,1.790327682134962984753062231964
512,1.790721365880466623599274844671
513,1.791114281817975729992107677493
514,1.791506432940239035613950951832
515,1.791897822222561765754617519457
516,1.792288452622940563137378528096
517,1.792678327082196982476026179129
518,1.793067448524111340966783327707
519,1.793455819855553706476488550067
520,1.793843443966614880248341590164
521,1.794230323730734169171717610196
522,1.794616462004828223634975564344
523,1.795001861629417377936945504072
