Eigenstate,Potential Energy
1,0.500000000043250153982718541772981933
2,0.64623093793342911923958086847325511
3,0.73633761053425169216963582255703476
4,0.79966527954152627399106442335840793
5,0.8480465782777015637693693644582693
6,0.8870660015001361521559441077129190
7,0.9197208306482643922424127337990558
8,0.9477838520997045698384906345106058
9,0.9723835648611333291992339187955374
10,0.9942802230813797332016312501491568
11,1.0140093969016632283450846075721706
12,1.0319621816267501696243184397134699
13,1.0484327073225591709220056095811949
14,1.0636476716723304324354419860531713
15,1.0777854557908153304542772073360605
16,1.090988929094724504883421504890373
17,1.103374282764234260095337799621191
18,1.115037280749187500544195084120765
19,1.126057782873072430354359547775153
20,1.136503082466959804767974580455463
21,1.146430412451200720818723577174910
22,1.155888856494167219403574676748957
23,1.164920826948777303570406601763653
24,1.173563222252917382152135421373026
25,1.181848343725368886974344375838437
26,1.189804629373396204552468722024308
27,1.197457246855322658670801260152937
28,1.204828576839570468821124299552275
29,1.211938610206612786376563148631336
30,1.218805276890798339948845948884880
31,1.225444720013070720490616911559473
32,1.231871525877704751398150621487767
33,1.238098918096534584321455496532009
34,1.244138922353601894933399180598539
35,1.250002506983957486998530653717430
36,1.255699703506870734384774002736738
37,1.261239710449616742040918465830633
38,1.266630983167592363748249588681783
39,1.271881311868663564883946214547025
40,1.276997889653825834850342519834124
41,1.281987372069509080074948531000245
42,1.286855929411865826960082146766207
43,1.291609292816895219229412776487939
44,1.296252795002161278603437529315665
45,1.300791406388294328730902141224643
46,1.305229767215328199703988770030461
47,1.309572216175449218149514749421820
48,1.313822816006146623637470242513175
49,1.317985376423091508249587382455360
50,1.32206347471794866249591678725531
51,1.32606047430085874829381401971796
52,1.32997954142898300542347549903364
53,1.33382366033005257932749959514837
54,1.33759564690230342666538677276022
55,1.34129816114870226252161329334065
56,1.34493371848329444304048550381022
57,1.34850470003030571214171649628743
58,1.35201336202183255467966082327164
59,1.35546184438720195113368487645195
60,1.35885217861605682121496105460628
61,1.36218629496765921627020052341696
62,1.36546602909060231524940985071724
63,1.36869312810988038998404434207980
64,1.37186925623195342559984002013311
65,1.37499599991290824191577893878099
66,1.37807487262997062262648561945435
67,1.38110731929236066773947798864757
68,1.38409472032372742393015773504123
69,1.38703839544508617675062695860154
70,1.38993960718425352036417484336975
71,1.39279956413517661674640585195757
72,1.39561942398825481391377411009187
73,1.39840029635069878633703741217969
74,1.40114324537415351214414166801288
75,1.40384929220518030061409130961805
76,1.40651941727274352670795838821940
77,1.40915456242554533096514423951268
78,1.41175563293088574491268575643639
79,1.41432349934567888214312631852620
80,1.41685899926931770957190648876016
81,1.41936293898723057190871932247816
82,1.42183609501321119182356000549209
83,1.42427921553791513449855663672329
84,1.42669302179029143354050902673679
85,1.42907820931815879905530989524701
86,1.43143544919361996329601578884434
87,1.43376538914855024849658576032999
88,1.43606865464497306376737607004555
89,1.43834584988475153576708244959299
90,1.44059755876268226113644682066189
91,1.44282434576675571662841866014081
92,1.44502675682905956533018293243666
93,1.44720532013053884231691654328767
94,1.44936054686258407433898004557906
95,1.45149293194819723411523655710978
96,1.45360295472528360768869047871868
97,1.45569107959443331119119249864701
98,1.45775775663338331906896051054034
99,1.45980342218019739363188580799266
100,1.46182849938705496537317201738174
101,1.46383339874641070935164506819379
102,1.46581851859116098820786038115457
103,1.46778424557034541877218538620590
104,1.46973095510180455451292578385089
105,1.47165901180312160231525211305840
106,1.47356876990208532783829951763147
107,1.47546057362783322174229235673600
108,1.47733475758375475952310000454677
109,1.47919164710316599415765064039119
110,1.48103155858870430063838049420365
111,1.48285479983632623027653454802491
112,1.48466167034474199902061606142786
113,1.48645246161106459824218094923903
114,1.48822745741340275868496539767328
115,1.48998693408108654977056323484064
116,1.49173116075316606480597713759174
117,1.49346039962579192963130745545670
118,1.49517490618904534114042297689412
119,1.49687492945375162839125267831675
120,1.49856071216878548678729381172435
121,1.50023249102933776856763141364792
122,1.50189049687659479971016555246444
123,1.50353495488924900042071199790272
124,1.50516608476724190657185036191666
125,1.50678410090811112319257343849959
126,1.50838921257629754381206942571224
127,1.50998162406574859157455830598418
128,1.51156153485613065085247261537674
129,1.51312913976295178484686297255682
130,1.51468462908187745279690268524894
131,1.51622818872750653630222668250128
132,1.51776000036686000706121263081299
133,1.51928024154782278674392191561212
134,1.52078908582276807376024238076152
135,1.52228670286757530334087778742023
136,1.52377325859624921981841631596288
137,1.52524891527133423205261125018763
138,1.52671383161030461095287994260230
139,1.52816816288810898214592121919482
140,1.52961206103603212086774541005669
141,1.53104567473703249866964244150805
142,1.53246914951770595826062943325201
143,1.53388262783701724263943530975595
144,1.53528624917193392503244803105909
145,1.53668015010009309839457102807286
146,1.53806446437962331447940954064349
147,1.53943932302623605951909765793916
148,1.54080485438770209552059022239757
149,1.54216118421581446811138998118990
150,1.54350843573594182178998345951754
151,1.54484672971426793681321739967772
152,1.54617618452280778686739822398491
153,1.54749691620228906719400648075038
154,1.54880903852298309238841990881823
155,1.55011266304356329984061920479234
156,1.55140789916806922515679414073681
157,1.55269485420104699614041048363038
158,1.55397363340093816340937789237808
159,1.5552443400317805404575481463277
160,1.5565070754132873906734355509238
161,1.5577619389693634574100660249340
162,1.5590090282751172981804753112095
163,1.5602484391024247762511481583903
164,1.5614802654640983462017206910216
165,1.5627045996567107336417226043452
166,1.5639215323021235246460701087894
167,1.5651311523877678972022161150576
168,1.5663335473057201835557866746575
169,1.5675288028906173255181638026518
170,1.5687170034564519658256635508918
171,1.5698982318322873699838228283310
172,1.5710725693969300452285472718394
173,1.5722400961125954589078929166295
174,1.5734008905576026997721673524926
175,1.5745550299581320670786999507002
176,1.5757025902190752938374735062915
177,1.5768436459540116647087117555809
178,1.5779782705143391829219391304856
179,1.5791065360175872311360113598577
180,1.5802285133749416726124024854406
181,1.5813442723180050412616178700713
182,1.5824538814248195159214104885980
183,1.5835574081451757281145226689680
184,1.5846549188252316447953532337450
185,1.5857464787314633341825501412746
186,1.5868321520739685832700410469956
187,1.5879120020291471674876425777066
188,1.5889860907617732087987302925251
189,1.5900544794464833532960929105569
190,1.5911172282886964193436574753381
191,1.5921743965449837387858755989660
192,1.5932260425429065733968930350602
193,1.5942722237003389103861297840292
194,1.5953129965442889777110157851072
195,1.5963484167292374115230393552809
196,1.5973785390550057676142232259870
197,1.5984034174841697521515504598874
198,1.5994231051590313336448376590441
199,1.6004376544181625699680753675907
200,1.6014471168125350905995891698489
201,1.6024515431212462104643116963887
202,1.6034509833668550514944572192722
203,1.6044454868303393265946256738518
204,1.6054351020656844008782029618803
205,1.6064198769141145954911966180848
206,1.6073998585179797527258830551939
207,1.6083750933343029330540340766227
208,1.6093456271480034654896679717486
209,1.6103115050848010941136796867440
210,1.6112727716238127163645407893230
211,1.6122294706098490720564840025561
212,1.6131816452654216102523530458151
213,1.6141293382024639118845954175848
214,1.6150725914337826438128000539189
215,1.6160114463842372505480722457660
216,1.6169459439016623381000542753622
217,1.6178761242675367089874685691042
218,1.6188020272074080208606088106376
219,1.6197236919010763416702241680717
220,1.6206411569925491095091846466286
221,1.6215544605997653994149908883058
222,1.6224636403241066944971258413861
223,1.6233687332596877222187104495501
224,1.6242697760024424151291205902560
225,1.6251668046590075525882224732556
226,1.6260598548554076214215134667646
227,1.6269489617455495383507529618564
228,1.6278341600195290443978267688254
229,1.6287154839117559234034005637223
230,1.6295929672089027308950876930000
231,1.6304666432576788225662168310058
232,1.6313365449724400912760227417505
233,1.6322027048426293980663595457616
234,1.6330651549400638432507724634458
235,1.6339239269260620486664634046114
236,1.6347790520584211498472352916629
237,1.6356305611982471182343878950194
238,1.6364784848166401444263577411067
239,1.6373228530012405180362133735546
240,1.6381636954626371575634198431243
241,1.6390010415406430716162431200288
242,1.6398349202104406074234148932856
243,1.6406653600886005173965098558023
244,1.6414923894389765319657677595023
245,1.6423160361784798117883441418772
246,1.6431363278827357978833558112990
247,1.6439532917916248414660950989200
248,1.6447669548147141940227926990448
249,1.6455773435365763261280389605718
250,1.6463844842220039591126872782327
251,1.6471884028211197089956938804361
252,1.6479891249743831405821873708904
253,1.6487866760175003033323118286686
254,1.6495810809862354052608087501926
255,1.6503723646211285042979081073217
256,1.6511605513721193018815723425825
257,1.6519456654030834295269773929710
258,1.6527277305962776724348488100478
259,1.6535067705567009329913833867288
260,1.6542828086163713198669939262549
261,1.6550558678385196757735993625024
262,1.6558259710217042686152233786410
263,1.6565931407038454959216794229566
264,1.6573573991661860527261188932820
265,1.6581187684371750874220974109515
266,1.6588772702962785126400589974694
267,1.6596329262777186836836279403548
268,1.6603857576741434775329584858052
269,1.6611357855402290416218760610354
270,1.6618830306962119358219273061441
271,1.6626275137313599508775657802324
272,1.6633692550073755821452368523217
273,1.6641082746617396010388714652354
274,1.6648445926109919324876974548426
275,1.6655782285539537132740421510729
276,1.6663092019748888088921894733647
277,1.6670375321466122722303357472628
278,1.6677632381335374980117631881445
279,1.6684863387946735754525198658830
280,1.6692068527865649319937880479804
281,1.6699247985661811569251344133256
282,1.6706401943937545011593089413998
283,1.6713530583355682655984431663255
284,1.6720634082666932346193490801283
285,1.6727712618736789619329474972115
286,1.6734766366571959335550612987235
287,1.6741795499346336671743672368866
288,1.6748800188426511496869829395517
289,1.6755780603396842609556691597231
290,1.6762736912084109163149640224264
291,1.6769669280581717687569924506717
292,1.6776577873273493556987471668190
293,1.6783462852857095960997890882698
294,1.6790324380367006748402498005663
295,1.6797162615197114014982588825048
296,1.6803977715122966290820422531898
297,1.6810769836323596644370509717991
298,1.6817539133403009870743839212440
299,1.6824285759411300792715196769225
300,1.6831009865865421180445185639125
301,1.6837711602769599404225663097222
302,1.6844391118635433749512752940336
303,1.6851048560501631125470947512517
304,1.6857684073953426942263608193552
305,1.6864297803141700442295983767295
306,1.6870889890801778117545033146224
307,1.6877460478271897032664067742030
308,1.6884009705511402838285628255601
309,1.6890537711118643367332890051110
310,1.6897044632348561165948038486377
311,1.6903530605130020908226986743870
312,1.6909995764082846826236389983365
313,1.6916440242534584082960248623612
314,1.6922864172537002131075245315521
315,1.6929267684882333254145391671616
316,1.6935650909119260046827157683246
317,1.6942013973568627220298571819846
318,1.6948357005338931245539900510479
319,1.6954680130341559250253882168070
320,1.6960983473305777182189809461640
321,1.6967267157793506428391230810518
322,1.6973531306213850034866036431127
323,1.6979776039837403667246017448123
324,1.6986001478810341084031840997590
325,1.6992207742168291742415051572783
326,1.6998394947849992909144096068528
327,1.7004563212710744484180682977397
328,1.7010712652535638429297347113292
329,1.7016843382052612550404033889819
330,1.7022955514945292950466657963261
331,1.7029049163865639538992153637080
332,1.7035124440446405210533646828658
333,1.7041181455313412477799655405114
334,1.7047220318097629399653224685925
335,1.7053241137447087953353548885297
336,1.7059244021038605431619985925589
337,1.7065229075589337587011110334612
338,1.7071196406868174112204770340819
339,1.7077146119706937101290241772406
340,1.7083078318011443405546798785521
341,1.7088993104772388019543393733424
342,1.7094890582076073469117720221400
343,1.7100770851114981579197129809012
344,1.7106634012198187558608423774785
345,1.7112480164761634595293604213487
346,1.7118309407378243709962011987641
347,1.7124121837767894521850258395607
348,1.7129917552807245043923429850928
349,1.7135696648539425956850399729660
350,1.7141459220183584785267632260974
351,1.7147205362144300852466098707972
352,1.7152935168020867837264583740477
353,1.7158648730616436776970923783815
354,1.7164346141947033661314916993802
355,1.7170027493250455270319456052677
356,1.7175692874995025354132972767451
357,1.7181342376888243545415424671935
358,1.7186976087885319444492196401567
359,1.7192594096197549328889245239824
360,1.7198196489300624866664414908160
361,1.7203783353942791282452674650980
362,1.7209354776152919792480186358640
363,1.7214910841248440264915209364135
364,1.7220451633843184345754672614586
365,1.7225977237855121414197539553204
366,1.7231487736513976144455425211757
367,1.7236983212368756594403987838286
368,1.7242463747295160708652544861188
369,1.7247929422502907561785980047309
370,1.7253380318542950473844877422323
371,1.7258816515314600531448645850836
372,1.7264238092072550079689348188934
373,1.7269645127433795852280001610525
374,1.7275037699384504825099846363478
375,1.7280415885286729709181746264054
376,1.7285779761885088645658247636200
377,1.7291129405313326995143340869699
378,1.7296464891100792896024030525320
379,1.7301786294178844990070430954330
380,1.7307093688887159883397313367731
381,1.7312387148979968097525396010047
382,1.7317666747632189692643786652785
383,1.7322932557445516310099478116212
384,1.7328184650454389271534300338334
385,1.7333423098131909947635842739781
386,1.7338647971395688983452240333674
387,1.7343859340613591874062150544463
388,1.7349057275609420259011626510309
389,1.7354241845668535682800348068903
390,1.7359413119543397712915007734763
391,1.7364571165459019585241695337745
392,1.7369716051118377461070107896036
393,1.7374847843707748030992259664190
394,1.7379966609901960277105243872124
395,1.7385072415869589962703962965335
396,1.7390165327278093358593469804336
397,1.7395245409298876505557884975332
398,1.7400312726612300094815838897881
399,1.7405367343412605624838062096680
400,1.7410409323412805834604500443810
401,1.7415438729849499902984229310101
402,1.7420455625487620866913236520590
403,1.7425460072625143466283304531244
404,1.7430452133097731346960471978384
405,1.7435431868283298276920703914033
406,1.7440399339106544466396052551959
407,1.7445354606043439159785018355695
408,1.7450297729125624531829915547214
409,1.7455228767944769499413612234646
410,1.7460147781656898594349149601625
411,1.7465054828986638497933108953988
412,1.7469949968231418063775234039816
413,1.7474833257265632620124843210342
414,1.7479704753544736790775939434342
415,1.7484564514109308674845306762351
416,1.7489412595589049682396639945530
417,1.7494249054206748511457552344479
418,1.7499073945782180899496862930669
419,1.7503887325735987935166484700201
420,1.7508689249093482750261253938310
421,1.7513479770488425114441422981797
422,1.7518258944166756749510682614610
423,1.7523026823990275725408290225373
424,1.7527783463440286075919841808300
425,1.7532528915621186428514039097271
426,1.7537263233264033717489279299902
427,1.7541986468730056827556430297117
428,1.7546698674014120305558136518958
429,1.7551399900748177265039155939137
430,1.7556090200204640105581276438787
431,1.7560769623299744084314468712484
432,1.7565438220596875235633503500020
433,1.7570096042309816018980741678816
434,1.7574743138306019674987729333199
435,1.7579379558109791527630394742750
436,1.7584005350905456243265514732486
437,1.7588620565540492661173486944760
438,1.7593225250528626017250621444756
439,1.7597819454052884374864512588016
440,1.7602403223968629976020692631566
441,1.7606976607806537112388823067490
442,1.7611539652775552153694763552028
443,1.7616092405765832211488385399265
444,1.7620634913351608633063868924471
445,1.7625167221794068633228523761639
446,1.7629689377044165308506071016330
447,1.7634201424745427726607697457611
448,1.7638703410236703274327989324592
449,1.7643195378554910670084196652039
450,1.7647677374437725166690633572297
451,1.7652149442326270976550849063392
452,1.7656611626367749333955314986058
453,1.7661063970418059626472645933587
454,1.7665506518044377486204186464443
455,1.7669939312527726080918608173287
456,1.7674362396865493576394758420522
457,1.7678775813773943728374710656902
458,1.7683179605690683564496539012640
459,1.7687573814777113296826696471024
460,1.7691958482920854889870119964141
461,1.7696333651738137782758389769519
462,1.7700699362576173897589945235683
463,1.7705055656515507973161335078239
464,1.7709402574372324834682135967891
465,1.7713740156700753288379653173846
466,1.7718068443795137949606265920297
467,1.7722387475692271811197014307000
468,1.7726697292173639710183711812932
469,1.7730997932767597461512187488310
470,1.7735289436751561905899721813440
471,1.7739571843154154544680409765146
472,1.7743845190757341739530031927455
473,1.7748109518098524987950980689080
474,1.7752364863472656316297089940305
475,1.7756611264934268019823985832198
476,1.7760848760299541889726259637422
477,1.7765077387148321259127845102438
478,1.7769297182826112629917123354665
479,1.7773508184446065776321336532411
480,1.7777710428890936273118294589948
481,1.7781903952815015959379097387698
482,1.7786088792646067027767524968604
483,1.7790264984587213541588132383150
484,1.7794432564618818579378819084066
485,1.7798591568500361778112443573260
486,1.7802742031772263125259657145624
487,1.7806883989757721489935005546011
488,1.7811017477564513860410044850842
489,1.7815142530086787571456347274326
490,1.7819259182006824154491340966354
491,1.7823367467796796155092592567412
492,1.7827467421720502801520170245313
493,1.7831559077835084276167790191036
494,1.7835642469992725532182502446405
495,1.7839717631842331582105291431170
496,1.7843784596831206704682625243390
497,1.7847843398206694427026075679655
498,1.7851894069017817736676102802243
499,1.7855936642116894498818280653095
500,1.785997115016114938549791475119
501,1.786399762561427977908147785466
502,1.786801610074805020366413138680
503,1.787202660764382996765609317896
504,1.787602917819415245788151339626
505,1.788002384410422456188103631014
506,1.788401063689344352134482969333
507,1.788798958789689969906212546853
508,1.789196072826686166111307470989
509,1.789592408897422588541135634659
510,1.789987970080999163119940184327
511,1.790382759438669328256902041853
512,1.790776780013982917034096727076
513,1.791170034832927303215206267532
514,1.791562526904067487790121446510
515,1.791954259218685500619946091763
516,1.792345234750917327847011728342
517,1.792735456457888440143283918856
518,1.793124927279849707532186553583
519,1.793513650140310483085775281559
520,1.793901627946171712869135195402
521,1.794288863587855867742857527779
522,1.794675359939437973615869247421
523,1.795061119858774177710217616829
