Eigenstate,Potential Energy
1,0.500000000041551023530401510053422009
2,0.64623093792233805994864093170775104
3,0.73633761050167250384840570902366404
4,0.79966527947366726910129773563660150
5,0.8480465781601552724444869765167102
6,0.8870660013182425711016616719903961
7,0.9197208303872447850961213594257574
8,0.9477838517447172305879096660638119
9,0.9723835643972994783596352122781865
10,0.9942802224937966300641994327483958
11,1.0140093961754112650957460003437664
12,1.0319621807468968986761005718557465
13,1.0484327062741616626383500081874098
14,1.0636476704404366719514774606499718
15,1.0777854543604650347639452926653964
16,1.090988927450949575725032737538264
17,1.103374280892058999886413476838923
18,1.115037278633628669367947272522838
19,1.126057780499139193409402450231070
20,1.136503079819653602502004398575632
21,1.146430409515515083304052087329692
22,1.155888853255087539712714429244916
23,1.164920823391280580464629989499405
24,1.173563218361971939424034091652791
25,1.181848339485934074757849447947268
26,1.189804624770422086504767947139231
27,1.197457241873749687934786647482643
28,1.204828571464329154962318535968868
29,1.211938604422623354968218027579167
30,1.218805270682970386095212123649801
31,1.225444713366302857291964562983128
32,1.231871518776884254144908095846686
33,1.238098910526537031039903259819429
34,1.244138914299290803778322309700483
35,1.250002498430183950889501529807667
36,1.255699694438473053205332416619712
37,1.261239700851420052658763138501835
38,1.266630973024408268065862361700306
39,1.271881301165289756090040201400360
40,1.276997878375045722011008926843665
41,1.281987360200091411177790990623123
42,1.286855916936564310503714266834328
43,1.291609279720448144433504811983402
44,1.296252781269291134300296054156619
45,1.300791392003707420987774633700804
46,1.305229752163714268215437157991286
47,1.309572200441481051430942644601186
48,1.313822799574479673043925968114337
49,1.317985359278363500838079080554520
50,1.32206345684477921274446822141503
51,1.32606045568384896868621606416350
52,1.32997952205271511590501700978261
53,1.33382364017908951563382651490211
54,1.33759562596118844752389458647056
55,1.34129813940195855572242641556512
56,1.34493369591542473037202638211288
57,1.34850467662579185318405414849061
58,1.35201333776513514944726064546738
59,1.35546181926275994155779542953644
60,1.35885215260828709145464124546982
61,1.36218626806095619183989635477086
62,1.36546600126933756095003613494893
63,1.36869309935840220662363035106159
64,1.37186922653458644548904523851043
65,1.37499596925395302312287122387641
66,1.37807484099370324197572619957879
67,1.38110728666303231253630020757283
68,1.38409468668556398239597990953444
69,1.38703836078228782714966038607741
70,1.38993957148099431880414637003526
71,1.39279952737560408363469292704493
72,1.39561938615648951905007181530653
73,1.39840025743083393262332344977605
74,1.40114320535025451789234501052152
75,1.40384925106128438043159289021084
76,1.40651937499285927094072291668382
77,1.40915451899365228367800469597456
78,1.41175558833093398038604450023791
79,1.41432345356158857986506121747306
80,1.41685895228497872770443205568715
81,1.41936289078650201920671167417249
82,1.42183604557992099798461980877678
83,1.42427916485585961892185731192256
84,1.42669296984323487247246481058563
85,1.42907815608983299109966776927849
86,1.43143539466772379326580370629445
87,1.43376533330874924958508117489185
88,1.43606859747489897801511656514287
89,1.43834579136800187280169362201385
90,1.44059749888281985516190036466369
91,1.44282428450730828164010543205780
92,1.44502669417351924853200019063613
93,1.44720525606236177571638940181591
94,1.44936048136518992449621220520513
95,1.45149286500496875002132291387663
96,1.45360288631956616674900817541148
97,1.45569100970953446328879996040612
98,1.45775768525257232868313684405058
99,1.45980334928670477998665157891771
100,1.46182842496407204059043924398071
101,1.46383332277708911458344411796943
102,1.46581844105861222772187206674654
103,1.46778416645764039196465694089811
104,1.46973087439197308582280893918874
105,1.47165892947915196901319500094351
106,1.47356868594692378566396636696715
107,1.47546048802438352836321374405917
108,1.47733467031487769578811515048809
109,1.47919155815167888311775115969308
110,1.48103146793738052430756310302097
111,1.48285470746789474410507820132666
112,1.48466157624188684405295110812229
113,1.48645236575642441093131400568833
114,1.48822735978957027833520492068431
115,1.48998683467060812358010824921003
116,1.49173105953854115048060917677886
117,1.49346029658947259554031870717131
118,1.49517480131343576398557599869206
119,1.49687482272120758835941260696821
120,1.49856060356161386015709813377219
121,1.50023238052979601774033438249855
122,1.50189038446689046063457253275111
123,1.50353484055153916738183037425594
124,1.50516596848363271431269695085990
125,1.50678398266065722633830660169224
126,1.50838909234700159356530017367293
127,1.50998150183656070965055481589283
128,1.51156141060894790062261829886118
129,1.51312901347961763965852062172727
130,1.51468450074418126143754559925669
131,1.51622805831718298557543638096535
132,1.51775986786558858144188301466034
133,1.51928010693722722507972039702995
134,1.52078894908441582298610605191472
135,1.52228656398297696917305622967249
136,1.52377311754685801439425538820748
137,1.52524877203854541848199427406496
138,1.52671368617545494474699571986867
139,1.52816801523247614948864915378210
140,1.52961191114083417369475405950248
141,1.53104552258342728651986344570085
142,1.53246899508679055686458129196026
143,1.53388247110982737920851801604743
144,1.53528609012944340021298854948793
145,1.53667998872321320485010024446657
146,1.53806430064920225206437032942409
147,1.53943915692305834700674226951527
148,1.54080468589248797884767199056549
149,1.54216101330921932510172908431063
150,1.54350826239855556331879858748399
151,1.54484655392661440437364839764712
152,1.54617600626534414650042604123304
153,1.54749673545540519974251311222326
154,1.54880885526700098003583363168065
155,1.55011247725873640889419281052826
156,1.55140771083458188503525126699926
157,1.55269466329901377452529257670948
158,1.55397343991040323751899339277141
159,1.5552441439327170644022213393654
160,1.5565068766855968588500904415602
161,1.5577617375928750638940981702633
162,1.5590088242295872920722304802851
163,1.5602482323675358129340809611147
164,1.5614800560194588344687692449145
165,1.5627043874818541786461632298800
166,1.5639213173765078666326265653500
167,1.5651309346907748459737919305764
168,1.5663333268166545486306717550671
169,1.5675285795887063419324021781709
170,1.5687167773208446155345022154121
171,1.5698980028420536988159402204775
172,1.5710723375310604753462281790570
173,1.5722398613500000967259156335308
174,1.5734006528771106392876525416072
175,1.5745547893384906885637352347949
176,1.5757023466389495578458918233601
177,1.5768433993919834013478306704349
178,1.5779780209489063763397119479512
179,1.5791062834271632991734109385858
180,1.5802282577378547415705922188690
181,1.5813440136124972157325724799607
182,1.5824536196290461436306323661694
183,1.5835571432372046597235683554567
184,1.5846546507830424886116547557306
185,1.5857462075329467057232819857852
186,1.5868318776969253496263602662233
187,1.5879117244512876864351290917797
188,1.5889858099607165625991674635263
189,1.5900541953997565771353038585364
190,1.5911169409737337243494982138035
191,1.5921741059391257295699180423075
192,1.5932257486233994600627634928916
193,1.5942719264443337149469352376013
194,1.5953126959288407348575481455885
195,1.5963481127313043636840675403195
196,1.5973782316514485542494036003677
197,1.5984031066517505932169625450740
198,1.5994227908744132071704662626224
199,1.6004373366579083836860413308171
200,1.6014467955531068475611809604588
201,1.6024512183390041685833149651789
202,1.6034506550380568769534734282555
203,1.6044451549311392410507026128934
204,1.6054347665721323224030414338421
205,1.6064195378021552731809408526153
206,1.6073995157634518949144203371054
207,1.6083747469129383290633341225408
208,1.6093452770354261008498107193448
209,1.6103111512565262591845903337810
210,1.6112724140552461082907391561054
211,1.6122291092762858899852924259523
212,1.6131812801420456437454813756054
213,1.6141289692643466224520691598855
214,1.6150722186558822394975750326287
215,1.6160110697413977534887865857779
216,1.6169455633686126449987579074575
217,1.6178757398188896444081450747172
218,1.6188016388176593832837786153371
219,1.6197232995446039422279195523381
220,1.6206407606436118033237493567191
221,1.6215540602325021094644046480645
222,1.6224632359125354279287855560758
223,1.6233683247777045790326198671387
224,1.6242693634238205891504507135390
225,1.6251663879573963246487457956857
226,1.6260594340043313446681235554458
227,1.6269485367184066155984891733246
228,1.6278337307895908974440329661594
229,1.6287150504521659542186118833315
230,1.6295925294926752746053773989835
231,1.6304662012576980921406013739259
232,1.6313360986614591138319407404550
233,1.6322022541932689427047145267376
234,1.6330646999248113403317327141525
235,1.6339234675172705004354695714499
236,1.6347785882283080323203283658691
237,1.6356300929188932742504049703171
238,1.6364780120599886677729282268337
239,1.6373223757390956285552173230523
240,1.6381632136666630671403347092415
241,1.6390005551823628409571898318697
242,1.6398344292612349935222669430464
243,1.6406648645197068115932690072868
244,1.6414918892214873884966350690572
245,1.6423155312833420667264449694514
246,1.6431358182807492783679615605489
247,1.6439527774534411651173224772011
248,1.6447664357108355584371398608266
249,1.6455768196373542883492289561989
250,1.6463839554976382049708303185278
251,1.6471878692416568122069165089289
252,1.6479885865097153114991472054795
253,1.6487861326373641272352102469581
254,1.6495805326602105700766717543804
255,1.6503718113186365176353440660112
256,1.6511599930624221972661923321979
257,1.6519451020552824617218332218611
258,1.6527271621793120017284903435850
259,1.6535061970393462983351106586854
260,1.6542822299672387007411515578022
261,1.6550552840260539426617061511164
262,1.6558253820141828219630157752383
263,1.6565925464693768934567092024968
264,1.6573567996727086250124309629047
265,1.6581181636524555415223765929660
266,1.6588766601879105237569289358902
267,1.6596323108131214746494967927084
268,1.6603851368205603860166242936993
269,1.6611351592647260749185405798717
270,1.6618823989656763130916323350404
271,1.6626268765124986326953753905679
272,1.6633686122667137872250227007831
273,1.6641076263656193099905292020665
274,1.6648439387255703784664240224550
275,1.6655775690452018593782214674432
276,1.6663085368085898121648630769525
277,1.6670368612883599341173953623616
278,1.6677625615487347011283171962961
279,1.6684856564485307065069102867036
280,1.6692061646440982907172823500598
281,1.6699241045922113508528063774291
282,1.6706394945529048261065294425927
283,1.6713523525922630716747312371948
284,1.6720626965851562776199924213186
285,1.6727705442179317399464027407520
286,1.6734759129910560086224620998313
287,1.6741788202217129718353366823383
288,1.6748792830463542782437964925575
289,1.6755773184232067452858028136618
290,1.6762729431347374860600880941188
291,1.6769661737900745957141979063554
292,1.6776570268273862822374809537229
293,1.6783455185162223474261914730995
294,1.6790316649598130549278944518943
295,1.6797154820973274725022081085900
296,1.6803969857060988740510403539462
297,1.6810761914038071331361608688593
298,1.6817531146506274247278194396965
299,1.6824277707513420380334105718403
300,1.6831001748574170510026250904818
301,1.6837703419690442779377699867035
302,1.6844382869371505831327190877848
303,1.6851040244653717336609167288818
304,1.6857675691119943688328612074313
305,1.6864289352918675148412408931708
306,1.6870881372782829078046779324407
307,1.6877451892048213071760608650207
308,1.6884001050671722779547906163444
309,1.6890528987249235309817853170479
310,1.6897035839033201564749411764810
311,1.6903521741949973457208385966390
312,1.6909986830616841140681691687634
313,1.6916431238358794179839581274213
314,1.6922855097225024704598496157217
315,1.6929258538005165744244234589060
316,1.6935641690245278498176342061573
317,1.6942004682263563929457081925325
318,1.6948347641165852193755712320460
319,1.6954670692860841319452969327342
320,1.6960973962075085151629278654246
321,1.6967257572367769749428774542438
322,1.6973521646145239381259482010534
323,1.6979766304675307258370201560423
324,1.6985991668101340778355614765349
325,1.6992197855456138898556041481435
326,1.6998384984675584011776825970976
327,1.7004553172612096532038842079579
328,1.7010702535047864082476719794460
329,1.7016833186707895034130828104971
330,1.7022945241272860712465675650736
331,1.7029038811391740657543404044435
332,1.7035114008694281550268645636235
333,1.7041170943803273590254726054354
334,1.7047209726346626165547489233447
335,1.7053230464969285963530106442236
336,1.7059233267344958103535550674762
337,1.7065218240187659013627411688862
338,1.7071185489263111640083581264925
339,1.7077135119399943634660187671573
340,1.7083067234500749433057920475970
341,1.7088981937552973360384923019383
342,1.7094879330639638735128266490805
343,1.7100759514949919349550358818859
344,1.7106622590789553263611467170643
345,1.7112468657591117105784770941936
346,1.7118297813924135628753358722640
347,1.7124110157505062173601538317747
348,1.7129905785207098159795135536802
349,1.7135684793069887050222183392900
350,1.7141447276309058214768853825168
351,1.7147193329325641568500380311517
352,1.7152923045715349808168393824142
353,1.7158636518277721090887506784314
354,1.7164333839025136299809242845027
355,1.7170015099191714549705662689340
356,1.7175680389242069030434111588771
357,1.7181329798879955578808141772050
358,1.7186963417056806419041280458610
359,1.7192581331980106523309583584488
360,1.7198183631121701971794046622940
361,1.7203770401225957761057695359731
362,1.7209341728317829876945651216468
363,1.7214897697710797588322512561111
364,1.7220438394014706201775732331552
365,1.7225963901143502641168597626254
366,1.7231474302322852628937373692284
367,1.7236969680097668389457871956888
368,1.7242450116339514761997647762408
369,1.7247915692253940048936752740876
370,1.7253366488387688731250997237288
371,1.7258802584635824584595395580751
372,1.7264224060248753761037005536821
373,1.7269630993839147503851006071573
374,1.7275023463388807580447615492376
375,1.7280401546255381349397265639298
376,1.7285765319179041023989729958466
377,1.7291114858289045024735073259267
378,1.7296450239110213095188726277160
379,1.7301771536569333579438010058307
380,1.7307078825001470429190730165723
381,1.7312372178156198695139128729619
382,1.7317651669203739684610487797435
383,1.7322917370741042532441518612402
384,1.7328169354797761822410637420646
385,1.7333407692842167472107590967195
386,1.7338632455786993468093744419448
387,1.7343843713995182945052615089277
388,1.7349041537285568977252541277490
389,1.7354225994938497829500933362448
390,1.7359397155701366558993743433081
391,1.7364555087794078137793007969380
392,1.7369699858914450180045597551936
393,1.7374831536243552009135417627705
394,1.7379950186450955876085738739459
395,1.7385055875699930898280321622999
396,1.7390148669652576227532854499009
397,1.7395228633474889746927798855986
398,1.7400295831841772378149173043896
399,1.7405350328941953657565507385494
400,1.7410392188482881581024514106143
401,1.7415421473695537206928900646417
402,1.7420438247339181470148383103213
403,1.7425442571706062414552951921487
404,1.7430434508626061775471419776951
405,1.7435414119471255566932220659278
406,1.7440381465160449764445731993094
407,1.7445336606163662250961198795094
408,1.7450279602506526058366595401007
409,1.7455210513774642515737974678874
410,1.7460129399117909449589613274313
411,1.7465036317254767036744867948771
412,1.7469931326476397136204370084891
413,1.7474814484650886891080945033356
414,1.7479685849227320839544989375652
415,1.7484545477239844374910677331591
416,1.7489393425311662851695575864871
417,1.7494229749659004823045477240234
418,1.7499054506095021042422385151040
419,1.7503867750033662015212126276146
420,1.7508669536493483920023459891257
421,1.7513459920101422422081924008194
422,1.7518238955096527195318159017083
423,1.7523006695333635515143863167372
424,1.7527763194287021059756723845343
425,1.7532508505053981714178424272453
426,1.7537242680358402446042661495109
427,1.7541965772554268100080621986523
428,1.7546677833629126248794450571087
429,1.7551378915207539223851932248384
430,1.7556069068554453949929628282617
431,1.7560748344578564618194656063521
432,1.7565416793835639695269951425196
433,1.7570074466531766647327863884161
434,1.7574721412526625359389541189412
435,1.7579357681336668487288686759635
436,1.7583983322138287752914634972446
437,1.7588598383770947797186146649971
438,1.7593202914740277412117308711411
439,1.7597796963221124965797634588428
440,1.7602380577060588733185272732398
441,1.7606953803780993732021956705129
442,1.7611516690582850701129396297932
443,1.7616069284347793698847528994841
444,1.7620611631641442516151193816625
445,1.7625143778716283211860341502598
446,1.7629665771514477014289198989833
447,1.7634177655670669281874449677818
448,1.7638679476514730705697313195880
449,1.7643171279074509159800856226578
450,1.7647653108078513724654005882543
451,1.7652125007958605915614734147732
452,1.7656587022852626530812461079506
453,1.7661039196607015550124262196586
454,1.7665481572779388975712453387532
455,1.7669914194641108853832271743066
456,1.7674337105179799448903150899024
457,1.7678750347101856527947918955522
458,1.7683153962834913715405745384854
459,1.7687547994530291058636578630994
460,1.7691932484065422228620185531473
461,1.7696307473046238854220172626477
462,1.7700673002809544121617191337329
463,1.7705029114425361677799128269308
464,1.7709375848699241448308176888049
465,1.7713713246174562057805194426167
466,1.7718041347134801161635327056304
467,1.7722360191605766494789672467285
468,1.7726669819357837795934642458379
469,1.7730970269908144374767419898350
470,1.7735261582522753569410100925402
471,1.7739543796218812766253116052086
472,1.7743816949766687959722550955833
473,1.7748081081692052362397383088343
474,1.7752336230278000106806772994620
475,1.7756582433567074267925345723196
476,1.7760819729363334345874120633239
477,1.7765048155234366540280050856144
478,1.7769267748513283577740127575190
479,1.7773478546300702987735846555479
480,1.7777680585466707774433813533659
481,1.7781873902652774994696856806610
482,1.7786058534273707931838927979158
483,1.7790234516519525666756347709924
484,1.7794401885357338245672058611474
485,1.7798560676533222215002781339385
486,1.7802710925574042373017463060991
487,1.7806852667789288227930188070105
488,1.7810985938272871129089902028255
489,1.7815110771904914354140659377485
490,1.7819227203353514784478844805729
491,1.7823335267076497512945061793932
492,1.7827434997323149266731205385921
493,1.7831526428135930396760915346402
494,1.7835609593352176375096400055514
495,1.7839684526605770726532701950602
496,1.7843751261328821839822154215829
497,1.7847809830753300514973110926675
498,1.7851860267912677700437218913835
499,1.7855902605643537394693122652080
500,1.785993687658718601828387643051
501,1.786396311319121571776777550839
502,1.786798134771109615448309767377
503,1.787199161221170946053448480725
504,1.787599393856890680148386492406
505,1.787998835847101502158874838963
506,1.788397490342035067363511138173
507,1.788795360473471991483824254539
508,1.789192449354890066963884148029
509,1.789588760081608936955999688246
510,1.789984295730937280376196078897
511,1.790379059362315739239024712435
512,1.790773054017459488606607283486
513,1.791166282720499065030885168584
514,1.791558748478120130103995226154
515,1.791950454279702543571662838130
516,1.792341403097456956564875592544
517,1.792731597886559999913385795531
518,1.793121041585289853159439275302
519,1.793509737115158976459007941410
520,1.793897687381046862622111452369
521,1.794284895271329604780232347769
522,1.794671363658010556150058606519
523,1.795057095396848519324961978043
