Eigenstate,Potential Energy
1,0.500000000030606897919499001049896128
2,0.64623093785090042598500817916066494
3,0.73633761029182982903089098291514528
4,0.79966527903658782703834352388265217
5,0.8480465774030417837532071663234572
6,0.8870660001466721398694305021929687
7,0.9197208287060309539640157495985833
8,0.9477838494582693989325286806405750
9,0.9723835614097899453489542731529022
10,0.9942802187092452964641327954994920
11,1.0140093914977315724476460463637723
12,1.0319621750799220154993538697427899
13,1.0484326995216599169116133374015706
14,1.0636476625061207946805062097052120
15,1.0777854451479976697615173075257576
16,1.090988916863946443870295081888482
17,1.103374268834090537508028043771215
18,1.115037265008220643185798233873227
19,1.126057765209772610316624803535622
20,1.136503062769764121742942439982838
21,1.146430390608492069924477725783652
22,1.155888832394272854361995215050795
23,1.164920800479967171997661942586252
24,1.173563193303402287608894663227187
25,1.181848312183298517335707028216725
26,1.189804595126857055773151244762834
27,1.197457209792335875611485358421941
28,1.204828536848089619483974769314673
29,1.211938567174521582026821087951258
30,1.218805230705908310744431471706935
31,1.225444670563118854110516545204402
32,1.231871473050351100551618978597769
33,1.238098861779359847792911256770556
34,1.244138862434104975872754119083965
35,1.250002443349553031432077451383039
36,1.255699636044886652345941301934140
37,1.261239639047291713265210442465146
38,1.266630907712073329514503300884609
39,1.271881232247003207293681752241111
40,1.276997805752980044602608503162795
41,1.281987283776334413603761837095667
42,1.286855836613116953646048730476121
43,1.291609195399222359269325028636377
44,1.296252692852107632016105189272795
45,1.300791299392293495889807660771950
46,1.305229655259701593714196284875389
47,1.309572099146403469324947428550462
48,1.313822693789770976282985954419785
49,1.317985248905355209908593319871921
50,1.32206334178469834578714212370035
51,1.32606033583781580542917086085310
52,1.32997939732174095547181889388866
53,1.33382351046407442826579128916293
54,1.33759549116291902023862511082141
55,1.34129799942110563191545736028365
56,1.34493355065254114335535750368383
57,1.34850452598131015364393957499722
58,1.35201318163936532679357911717306
59,1.35546165755588713912857948410789
60,1.35885198522036931553155985754837
61,1.36218609489192201442366632565349
62,1.36546582221898381623859186305590
63,1.36869291432639168113051379335928
64,1.37186903542044556173459952873610
65,1.37499577195706951682646806306068
66,1.37807463741332383267333131981330
67,1.38110707669826036754414415833800
68,1.38409447023535717403788567730255
69,1.38703813774545578316259769375204
70,1.38993934175619626583398435707593
71,1.39279929086134648373156387729236
72,1.39561914275112369907056900628527
73,1.39840000703255370644458650194283
74,1.40114294785709380134118166416716
75,1.40384898637111479882990756287524
76,1.40651910300338775916687393270847
77,1.40915423960241867864206671623901
78,1.41175530143530860581542073425392
79,1.41432315905876982329547957277928
80,1.41685865007199060956998729561020
81,1.41936258076019175392126987726868
82,1.42183572763695654690568510251846
83,1.42427883889272723508676931170216
84,1.42669263575623663699563481503048
85,1.42907781377508434111842317907013
86,1.43143504402115104132132092520949
87,1.43376497422608709432379935869712
88,1.43606822985168800609498486730009
89,1.43834541509958605188658613421011
90,1.44059711386434401788650640752183
91,1.44282389063371560042660746397583
92,1.44502629133954870113888605112962
93,1.44720484416254560139875777253698
94,1.44936006029385107065597665871264
95,1.45149243465621830922473997668407
96,1.45360244658730080398804944427958
97,1.45569056048743383336188087999547
98,1.45775722643409648356983903751878
99,1.45980288076509156609004545868631
100,1.46182794663233448571975334927814
101,1.46383283452801280454882164180871
102,1.46581794278475267241203589773177
103,1.46778365805132038077737657328785
104,1.46973035574528003231701314378736
105,1.47165840048393524465075498622813
106,1.47356814649479204250808365166701
107,1.47545993800670201059946953042217
108,1.47733410962276553993321167235315
109,1.47919098667600640678000067546623
110,1.48103088556876650336220708933938
111,1.48285411409670367814650583421907
112,1.48466097175822620998488956292490
113,1.48645175005014190455505152810840
114,1.48822673275025104379485981994784
115,1.48998619618757197052297191704101
116,1.49173040950083975878949984092665
117,1.49345963488588670749380558749796
118,1.49517412783247236370103285828730
119,1.49687413735109706837256731944177
120,1.49855990619030717499075600521356
121,1.50023167104496182431391194505358
122,1.50188966275591224536488340292796
123,1.50353410650151235982446161121095
124,1.50516522198136178719224871674671
125,1.50678322359265278181451892194871
126,1.50838832059947743558101762886149
127,1.50998071729543090220625702825746
128,1.51156061315982381182106677356027
129,1.51312820300780497136189503982363
130,1.51468367713467706437823575278899
131,1.51622722145467265976041652517967
132,1.51775901763444286168928519440717
133,1.51927924322149915152515162782778
134,1.52078807176783769639480265834444
135,1.52228567294895729089270531949077
136,1.52377221267847841078217340393045
137,1.52524785321855754963884913174827
138,1.52671275328627739738804918506359
139,1.52816706815619131378208036652441
140,1.52961094975918510389527642823002
141,1.53104454677781454522454179087860
142,1.53246800473826904271625820928430
143,1.53388146609910313787093028928873
144,1.53528507033687041844013378553092
145,1.53667895402879018747109601814511
146,1.53806325093256938170347204273294
147,1.53943809206349402635680067932162
148,1.54080360576890555531369052381916
149,1.54215991780016379762978181932730
150,1.54350715138220027122407982092745
151,1.54484542728075769797962934296656
152,1.54617486386740603939980822396176
153,1.54749557718242400248890809296429
154,1.54880768099562991507356220787619
155,1.55011128686524020653197668571688
156,1.55140650419483336026778644322065
157,1.55269344028849038450524902105464
158,1.55397220040418361948015156305285
159,1.5552428878054775538327586550400
160,1.5565056038116079877133966527045
161,1.5577604478459980386925894185503
162,1.5590075174832704515480412576650
163,1.5602469084948110651985958425050
164,1.5614787148929380733512516150485
165,1.5627030289737256790497382545258
166,1.5639199413585326586842137492250
167,1.5651295410342830677525822638421
168,1.5663319153925417772579189529730
169,1.5675271502674299028032777508234
170,1.5687153299724198694708968119881
171,1.5698965373360503069171611799521
172,1.5710708537365986413123862439373
173,1.5722383591357467864270034219106
174,1.5733991321112757773490737005184
175,1.5745532498888233317370940129167
176,1.5757007883727340449317313480061
177,1.5768418221760354794348515734484
178,1.5779764246495693031229999736977
179,1.5791046679103039211118679386429
180,1.5802266228688595476415934784093
181,1.5813423592562683665398528027439
182,1.5824519456499974756188608473573
183,1.5835554494992576642510402378977
184,1.5846529371496222656300772735360
185,1.5857444738669778918113840772458
186,1.5868301238608280201217385484949
187,1.5879099503069732314061761714876
188,1.5889840153695835363967468762609
189,1.5900523802226865212612120751518
190,1.5911151050710869633764159303432
191,1.5921722491707371398449321072659
192,1.5932238708485742109241308708579
193,1.5942700275218429821810719135924
194,1.5953107757169173861207477467622
195,1.5963461710876386156107404148495
196,1.5973762684331836009660450922061
197,1.5984011217154782059783172150442
198,1.5994207840761693048316771895938
199,1.6004353078531685737217609938794
200,1.6014447445967819373398754039575
201,1.6024491450854356466022043710514
202,1.6034485593410123637366159600803
203,1.6044430366438079094098796679503
204,1.6054326255471202867582128793169
205,1.6064173738914809476340631710768
206,1.6073973288185413197673027484630
207,1.6083725367846204654674014595782
208,1.6093430435739280932723834595333
209,1.6103088943114686653732973624701
210,1.6112701334756380964143695901418
211,1.6122268049105204026265119511339
212,1.6131789518378945284173212265588
213,1.6141266168689557283069561704560
214,1.6150698420157664798943616100071
215,1.6160086687024361340799496254762
216,1.6169431377760432569964150878211
217,1.6178732895173046226843132758566
218,1.6187991636509998289565821107626
219,1.6197207993561548093822261840613
220,1.6206382352759967495108905510833
221,1.6215515095276783096222986642924
222,1.6224606597117883513599107694248
223,1.6233657229216427290737476225607
224,1.6242667357523702051643219072916
225,1.6251637343097960459640117674755
226,1.6260567542191268360900367859189
227,1.6269458306334451541091412956688
228,1.6278309982420159197068268756363
229,1.6287122912784115644977209285697
230,1.6295897435284607127070681044278
231,1.6304633883380221609790734671331
232,1.6313332586205945662182681014371
233,1.6321993868647568269534126050334
234,1.6330618051414553042750602790597
235,1.6339205451111310534314813755485
236,1.6347756380306967648361654827918
237,1.6356271147603670345983831118740
238,1.6364750057703436955718909906093
239,1.6373193411473616444857350187036
240,1.6381601506010973185573722561521
241,1.6389974634704441029194491144530
242,1.6398313087296575247929167416165
243,1.6406617149943742651616290333833
244,1.6414887105275066761660801450491
245,1.6423123232450171773085418995189
246,1.6431325807215750490182879219399
247,1.6439495101960970053431562778030
248,1.6447631385771791263025262020714
249,1.6455734924484151183975780539368
250,1.6463805980736112873802482423664
251,1.6471844814018961226880506081098
252,1.6479851680727272914401336591623
253,1.6487826834208011135931165117310
254,1.6495770524808641745091947379439
255,1.6503682999924309543611526951208
256,1.6511564504044075591368095200469
257,1.6519415278796279439820540121540
258,1.6527235562992990729370638825322
259,1.6535025592673618179112855208607
260,1.6542785601147679825970624716231
261,1.6550515819036737643744659814173
262,1.6558216474315543789345888683076
263,1.6565887792352386975036105703713
264,1.6573529995948693468206969770058
265,1.6581143305377867963976575372337
266,1.6588727938423396000927194178583
267,1.6596284110416240045306116394518
268,1.6603812034271529573680734032619
269,1.6611311920524587846038573737922
270,1.6618783977366252603575960836595
271,1.6626228410677583523538768835544
272,1.6633645424063896219555149805595
273,1.6641035218888197211399600238176
274,1.6648397994303991947163963782200
275,1.6655733947287504626420926578099
276,1.6663043272669292600702525787874
277,1.6670326163165330184224122253583
278,1.6677582809407479414124527048389
279,1.6684813399973462784700201168622
280,1.6692018121416258884123295680228
281,1.6699197158292999821710116666302
282,1.6706350693193345408250039084470
283,1.6713478906767366213695013756104
284,1.6720581977752907067390354451249
285,1.6727660083002499073290438739883
286,1.6734713397509780387439326682085
287,1.6741742094435476350464195688708
288,1.6748746345132902992673483083258
289,1.6755726319173040392233847983597
290,1.6762682184369183211534604315953
291,1.6769614106801146820974950954884
292,1.6776522250839057859072115042689
293,1.6783406779166768286470719921861
294,1.6790267852804843302836080836316
295,1.6797105631133143997909501434284
296,1.6803920271913080592163353786259
297,1.6810711931309435584138353917789
298,1.6817480763911849971808280049910
299,1.6824226922755940576361634504712
300,1.6830950559344065974267815594408
301,1.6837651823665745151812654119900
302,1.6844330864217749811240481438963
303,1.6850987828023842059602969919199
304,1.6857622860654193255413984352906
305,1.6864236106244498298187258133285
306,1.6870827707514777992862293131918
307,1.6877397805787841308665494417521
308,1.6883946541007482316696708020897
309,1.6890474051756372698911075560385
310,1.6896980475273653179965992387614
311,1.6903465947472259830977561432106
312,1.6909930602955960376518020004473
313,1.6916374575036114432357159437642
314,1.6922797995748175716694476168336
315,1.6929200995867929431327289998790
316,1.6935583704927478569186755596915
317,1.6941946251230954534305406506407
318,1.6948288761870005586681853730321
319,1.6954611362739034527676534339236
320,1.6960914178550185638538054477494
321,1.6967197332848120061416273844649
322,1.6973460948024540767193212372497
323,1.6979705145332502250534819905762
324,1.6985930044900494723582670751261
325,1.6992135765746320428109461384527
326,1.6998322425790744438423563221671
327,1.7004490141870948162597621317818
328,1.7010639029753757433983056338630
329,1.7016769204148694941621817440750
330,1.7022880778720821316227511767950
331,1.7028973866103379257525995290643
332,1.7035048577910251315210976602160
333,1.7041105024748235108913753516239
334,1.7047143316229117827262753301904
335,1.7053163560981593155202191072971
336,1.7059165866662981209930320561589
337,1.7065150339970780207757009887016
338,1.7071117086654060450247876374531
339,1.7077066211524661274564044334059
340,1.7082997818468251881249779252978
341,1.7088912010455213175086640252370
342,1.7094808889551365590352668568058
343,1.7100688556928539278223489991399
344,1.7106551112874986593235794938423
345,1.7112396656805655071996969656583
346,1.7118225287272295651939203969458
347,1.7124037101973441783551975087545
348,1.7129832197764227553181898734632
349,1.7135610670666080265493174131637
350,1.7141372615876262908847953417424
351,1.7147118127777287379493261463928
352,1.7152847299946195288063340872900
353,1.7158560225163699192033439562219
354,1.7164256995423198398751362665031
355,1.7169937701939672991740844892657
356,1.7175602435158438178033523012670
357,1.7181251284763791346838883435481
358,1.7186884339687544279494677760850
359,1.7192501688117397962022680557978
360,1.7198103417505249379414605371655
361,1.7203689614575347740283191598769
362,1.7209260365332364947819689605577
363,1.7214815755069326273142377466658
364,1.7220355868375451470918294607355
365,1.7225880789143888700896018880704
366,1.7231390600579330031997565034641
367,1.7236885385205537449039714600285
368,1.7242365224872747249343315598989
369,1.7247830200764999154653639066433
370,1.7253280393407347270100664328162
371,1.7258715882672981423270199317577
372,1.7264136747790248448158058298972
373,1.7269543067349573081149842817319
374,1.7274934919310321553805943121594
375,1.7280312381007514798140550189493
376,1.7285675529158505826538586824738
377,1.7291024439869539178418995079443
378,1.7296359188642224107738387288404
379,1.7301679850379939909359917984465
380,1.7306986499394140951925244555596
381,1.7312279209410590171585467931750
382,1.7317558053575492208293266286667
383,1.7322823104461572931262844453859
384,1.7328074434074054990609641814246
385,1.7333312113856565607712932485815
386,1.7338536214696983190822231784660
387,1.7343746806933180269260835841498
388,1.7348943960358702114199541846237
389,1.7354127744228387792830856742026
390,1.7359298227263905546985696887324
391,1.7364455477659205665560737526012
392,1.7369599563085926934497707508785
393,1.7374730550698731399135220627929
394,1.7379848507140553249866817281772
395,1.7384953498547790399782475525738
396,1.7390045590555435262928986573385
397,1.7395124848302141032220587206774
398,1.7400191336435223538298676240502
399,1.7405245119115584347201597501120
400,1.7410286260022598096377458064830
401,1.7415314822358924558185381808728
402,1.7420330868855252883006031171985
403,1.7425334461775006229307788695883
404,1.7430325662918985711525968829338
405,1.7435304533629928320151664387618
406,1.7440271134797039904340717161195
407,1.7445225526860474384193664710030
408,1.7450167769815734224603311595967
409,1.7455097923218020781400207980370
410,1.7460016046186559664538077946524
411,1.7464922197408843718457975628914
412,1.7469816435144829445483909976827
413,1.7474698817231097662813031351883
414,1.7479569401084942631517982864315
415,1.7484428243708432497149337110474
416,1.7489275401692405338242558723610
417,1.7494110931220429307560875725819
418,1.7498934888072698498412980674241
419,1.7503747327629907321132567198917
420,1.7508548304877053208917931438454
421,1.7513337874407207174839839598382
422,1.7518116090425245036026418613216
423,1.7522883006751517666401092507732
424,1.7527638676825496415201765136939
425,1.7532383153709357484860409933015
426,1.7537116490091541336623369156055
427,1.7541838738290261970190941391264
428,1.7546549950256966214229112655707
429,1.7551250177579782151608427582133
430,1.7555939471486885300402525005331
431,1.7560617882849857587165516056326
432,1.7565285462187010607600865681602
433,1.7569942259666626553569333517571
434,1.7574588325110227785772378857608
435,1.7579223707995753288827959074265
436,1.7583848457460721018609229803313
437,1.7588462622305357755504229397819
438,1.7593066250995686284211285680578
439,1.7597659391666576713070568351389
440,1.7602242092124772645029578222094
441,1.7606814399851863798737162843021
442,1.7611376362007240716177103508648
443,1.7615928025431028033766650125186
444,1.7620469436646942510568852997158
445,1.7625000641865169120178937230869
446,1.7629521686985165449710946351649
447,1.7634032617598466097538046373174
448,1.7638533478991419251739945426079
449,1.7643024316147933854257319970391
450,1.7647505173752158875112829880511
451,1.7651976096191169727583956302301
452,1.7656437127557590237756941597617
453,1.7660888311652207599127690449581
454,1.7665329691986544201674188923319
455,1.7669761311785422574074253410947
456,1.7674183213989476408993624154227
457,1.7678595441257654628463300430474
458,1.7682998035969682448244511569230
459,1.7687391040228504580375699615458
460,1.7691774495862706997268488806675
461,1.7696148444428895754540470755216
462,1.7700512927214065003029237291889
463,1.7704867985237940227639976386043
464,1.7709213659255278322023875342398
465,1.7713549989758164186376612362592
466,1.7717877016978275155280614747965
467,1.7722194780889106060683186763125
468,1.7726503321208205086359594384344
469,1.7730802677399345180788597831360
470,1.7735092888674706273762422133154
471,1.7739373993997010967767207414893
472,1.7743646032081656680187891654663
473,1.7747909041398797745292322616449
474,1.7752163060175452515895331435970
475,1.7756408126397524692183582870026
476,1.7760644277811864015694282297877
477,1.7764871551928269658367644479336
478,1.7769089986021483066486791467728
479,1.7773299617133159153290655865637
480,1.7777500482073819786003797004492
481,1.7781692617424775075970669941138
482,1.7785876059540048159701337632763
483,1.7790050844548257270722004589015
484,1.7794217008354483299710997325065
485,1.7798374586642137611605874797314
486,1.7802523614874775967533408723532
487,1.7806664128297927039309543921981
488,1.7810796161940881481281144026208
489,1.7814919750618473840430424245842
490,1.7819034928932835935086362173252
491,1.7823141731275143044153431238867
492,1.7827240191827338787798138905213
493,1.7831330344563838448735191021792
494,1.7835412223253221673527544748402
495,1.7839485861459896477897681975952
496,1.7843551292545766999252144407597
497,1.7847608549671861850603726400581
498,1.7851657665799962527401091384329
499,1.7855698673694206839412511720831
500,1.785973160592268867131956017231
501,1.786375649485901153103840584004
502,1.786777337268387043617604269329
503,1.787178227138657681846277368252
504,1.787578322276660488308201227841
505,1.787977625843508789606894971185
506,1.788376140981632169912991076619
507,1.788773870814925393061854568784
508,1.789170818448895535067332795277
509,1.789566986970805557781856849587
510,1.789962379449820376775517306073
511,1.790356998937148654345751006562
512,1.790750848466184217687995973231
513,1.791143931052645717796256119321
514,1.791536249694715205392723454874
515,1.791927807373175998018526740452
516,1.792318607051548048512287466710
517,1.792708651676221889502237083584
518,1.793097944176592939190667502335
519,1.793486487465192950264513722303
520,1.793874284437821458830083262393
521,1.794261337973674028493898716222
522,1.794647650935471565687308566249
523,1.795033226169587143287338748744
