Eigenstate,Potential Energy
1,0.500000000041140194039828208818242845
2,0.64623093791965637432226412383664615
3,0.73633761049379524676625360491926317
4,0.79966527945725977944706883851987772
5,0.8480465781317340045931003854700399
6,0.8870660012742629256606434478083072
7,0.9197208303241334617261033321266688
8,0.9477838516588857124225513098962707
9,0.9723835642851502948840778090904892
10,0.9942802223517265289933863265652421
11,1.0140093959998129291422613177208715
12,1.0319621805341599208071556469665248
13,1.0484327060206731176428464479446220
14,1.0636476701425814556741542819885253
15,1.0777854540146260631685757262115365
16,1.090988927053507895900001888439766
17,1.103374280439393843760543141138526
18,1.115037278122117468996741315875892
19,1.126057779925157569778981493039915
20,1.136503079179575335641459177730204
21,1.146430408805712068918795117582506
22,1.155888852471929735907328110392501
23,1.164920822531135947048896373057658
24,1.173563217421206371577262470840908
25,1.181848338460911332336380070010106
26,1.189804623657503719936841951440070
27,1.197457240669294961406204408799469
28,1.204828570164694967423502521926839
29,1.211938603024164159367508467172458
30,1.218805269182038107150451963511349
31,1.225444711759246808043175343989805
32,1.231871517060051051478583340124134
33,1.238098908696270510335569366459187
34,1.244138912351931932797300370022996
35,1.250002496362070743001932830172477
36,1.255699692245940480032815414875947
37,1.261239698530799956195165303136738
38,1.266630970572029272327096018279292
39,1.271881298577477178334155317304432
40,1.276997875648121483562339007038471
41,1.281987357330373947882696908842407
42,1.286855913920368482840424561163516
43,1.291609276554085147294378152404844
44,1.296252777949068406461422805034714
45,1.300791388525928554277964659288543
46,1.305229748524678916394265375677110
47,1.309572196637484838783532749938074
48,1.313822795601814102698463982811962
49,1.317985355133315862810632831165258
50,1.32206345252363249171446856235430
51,1.32606045118288175150493668717967
52,1.32997951736820149883849096470303
53,1.33382363530729901134088760795062
54,1.33759562089838589176936540711790
55,1.34129813414440401382491261195496
56,1.34493369045937340338527377667135
57,1.34850467096749398381039389580641
58,1.35201333190083592768128940560659
59,1.35546181318869941005810595210308
60,1.35885214632070005064110532898743
61,1.36218626155607210471376956466795
62,1.36546599454338045763388380654341
63,1.36869309240759058861790907640951
64,1.37186921935513318964193642646735
65,1.37499596184206528530984463193090
66,1.37807483334558236048511409448398
67,1.38110727877487371115705923242309
68,1.38409467855355707320366931129133
69,1.38703835240261591298655669112111
70,1.38993956284983449544931116737288
71,1.39279951848912714165970285866209
72,1.39561937701085984535603896722653
73,1.39840024802220941165474086538953
74,1.40114319567478643252321765370549
75,1.40384924111511731251923376600331
76,1.40651936477213100154252989100955
77,1.40915450849449369292646585666244
78,1.41175557754946894701714512209729
79,1.41432344249393388039522188378575
80,1.41685894092724393525103091713242
81,1.41936287913478940194720213061902
82,1.42183603363032541724919309290049
83,1.42427915260446842691454793812335
84,1.42669295728612780961554548470582
85,1.42907814322308208299613736573404
86,1.43143538148739324727469721507815
87,1.43376531981089535100432586401638
88,1.43606858365556998586655776645820
89,1.43834577722323791521292655687983
90,1.44059748440865282433944172535166
91,1.44282426969976172842842998416590
92,1.44502667902860827655290551085184
93,1.44720524057609293508311302844479
94,1.44936046553356110509668175020949
95,1.45149284882396907436486335503874
96,1.45360286978517588237080008895733
97,1.45569099281772483470632750511885
98,1.45775766799930552889883190911560
99,1.45980333166793378153087368023809
100,1.46182840697574050609891243619651
101,1.46383330441513128690319431875162
102,1.46581842231895281953970763907734
103,1.46778414733619447495214164152330
104,1.46973085488464597929165900745520
105,1.47165890958183912807497983623645
106,1.47356866565551068888793700205820
107,1.47546046733474556492606357013800
108,1.47733464922288005210937958452037
109,1.47919153665317642897456347802394
110,1.48103144602821769842238471819206
111,1.48285468514390543920000581372655
112,1.48466155349889429136414071897180
113,1.48645234259024106417701829670482
114,1.48822733619599769713085075511952
115,1.48998681064543685629382771703385
116,1.49173103507755061652254594882139
117,1.49346027168843096707899668474275
118,1.49517477596809984708458146332262
119,1.49687479692732270352754344692604
120,1.49856057731491372230514766688359
121,1.50023235382600261553754573017934
122,1.50189035730171393525780192705742
123,1.50353481292067769065037094033837
124,1.50516594038277236620168534636400
125,1.50678395408547187186353230951278
126,1.50838906329315275903225016193166
127,1.50998147229969745826039255246373
128,1.51156138058470670742778616487294
129,1.51312898296362226586057489108357
130,1.51468446973204262801978031844723
131,1.51622802680449904626279622832478
132,1.51775983584794419498057974193467
133,1.51928007441019402682893274945354
134,1.52078891604355209581406415347173
135,1.52228653042382751364973759005958
136,1.52377308346495401827288678020373
137,1.52524873742940432546147738400553
138,1.52671365103458032250726522156295
139,1.52816797955535755699096779357973
140,1.52961187492294702773880309254965
141,1.53104548582023272754954774398356
142,1.53246895777373531401423258138509
143,1.53388243324234363458125728703378
144,1.53528605170294865238281758508614
145,1.53667994973311013157930728176168
146,1.53806426109087857222771774826488
147,1.53943911679188668171384567084309
148,1.54080464518382571175488820019140
149,1.54216097201840846190481036979340
150,1.54350822052092259041747689773121
151,1.54484651145747014669926648382968
152,1.54617596319998362449760997732746
153,1.54749669178910748549582969215892
154,1.54880881099502905253227996319265
155,1.55011243237633700841230757437405
156,1.55140766533698536665152489036615
157,1.55269461718143396072847471782256
158,1.55397339316803726992283182332660
159,1.5552440965607452545470204317588
160,1.5565068286791825380835332513102
161,1.5577616889471644323214523258986
162,1.5590087749397092665662467212277
163,1.5602481824286018741944911734034
164,1.5614800054265628731215647941071
165,1.5627043362300723403723650356479
166,1.5639212654608983963164721376527
167,1.5651308821063779308599225329454
168,1.5663332735584921604800444599353
169,1.5675285256517820781663374910610
170,1.5687167227001435393563137766850
171,1.5698979475325421782994487922736
172,1.5710722815276860214803466425607
173,1.5722398046476912004044427732068
174,1.5734005954707766072332223705550
175,1.5745547312230214781748572418804
176,1.5757022878092156109558262783330
177,1.5768433398428354768839791807871
178,1.5779779606751753818721419411170
179,1.5791062224236601213409190733817
180,1.5802281959993700753726248547765
181,1.5813439511338013926753275770521
182,1.5824535564048889587153363552060
183,1.5835570792623151972650578104695
184,1.5846545860521289468749558564088
185,1.5857461420406962203661534045793
186,1.5868318114380038159353052905253
187,1.5879116574203395803424409910507
188,1.5889857421523647604683854049765
189,1.5900541268086021743023174817686
190,1.5911168715943558524065244166193
191,1.5921740357660813723792301594408
192,1.5932256776512232684872263312398
193,1.5942718546675378202838766608468
194,1.5953126233419145609627910403084
195,1.5963480393287144377724054289291
196,1.5973781574276383163580349907451
197,1.5984030316011402043179690969257
198,1.5994227149913993559184358432602
199,1.6004372599368640917867640971568
200,1.6014467179883812737471519358945
201,1.6024511399249224111816949691353
202,1.6034505757689197750320059203047
203,1.6044450748012231741268529910647
204,1.6054346855756890087016456013909
205,1.6064194559334115664252580713473
206,1.6073994330166095796355605298226
207,1.6083746632821739144126849465324
208,1.6093451925148906128990867585025
209,1.6103110658403450316978795583065
210,1.6112723277375185719527041998153
211,1.6122290220510853600696785076349
212,1.6131811920034191062077633651786
213,1.6141288802063145184300222871771
214,1.6150721286724382482031918374559
215,1.6160109788265085734750474222715
216,1.6169454715162177737843499276562
217,1.6178756470229011564433089339598
218,1.6188015450719617062398553362369
219,1.6197232048430536315935360739585
220,1.6206406649800373152898457684112
221,1.6215539636007035720806505966824
222,1.6224631383062844105132426971601
223,1.6233682261907438598166368275863
224,1.6242692638498639211405463431506
225,1.6251662873901281996868935541789
226,1.6260593324374067556718100007324
227,1.6269484341454508169615046495440
228,1.6278336272041991635790512404043
229,1.6287149458479033362221728758521
230,1.6295924238630763550256888439988
231,1.6304660945962667378285500228330
232,1.6313359909616682268551394476877
233,1.6322021454485602093047327200041
234,1.6330645901285949779036581683743
235,1.6339233566629250025096322678209
236,1.6347784763091799115249048805223
237,1.6356299799282968032342066867581
238,1.6364778979912056180667918572218
239,1.6373222605853750073504830971419
240,1.6381630974212208519626359133948
241,1.6390004378383817122134580003427
242,1.6398343108118640648988267818133
243,1.6406647449580613582822631187669
244,1.6414917685406485732280943090124
245,1.6423154094763566635828729957302
246,1.6431356953406293943582580393045
247,1.6439526533731639594862561093030
248,1.6447663104833429596867085996239
249,1.6455766932555527089476042719255
250,1.6463838279543982537248270209876
251,1.6471877405298130042729437555045
252,1.6479884566220657760078521130358
253,1.6487860015666703125044768648366
254,1.6495804003991969463876576582169
255,1.6503716778599902775455528577051
256,1.6511598583987929534335335672811
257,1.6519449661792819422131259075753
258,1.6527270250835137427858761777788
259,1.6535060587162853345731454454218
260,1.6542820904094112527473956298295
261,1.6550551432259171019730180358458
262,1.6558252399641542333896212603268
263,1.6565924031618344347258122870025
264,1.6573566550999900837024594986625
265,1.6581180178068582892592221327711
266,1.6588765130616911876423832178778
267,1.6596321623984956058927905633637
268,1.6603849871097021257385738962641
269,1.6611350082497678170983268699045
270,1.6618822466387083646250885509709
271,1.6626267228655688705339968753304
272,1.6633684572918273125639793671826
273,1.6641074700547380994740996944202
274,1.6648437810706129323784339290088
275,1.6655774100380428467850310808866
276,1.6663083764410597129778036321828
277,1.6670366995522446780412794700267
278,1.6677623984357753034623203663852
279,1.6684854919504229007636246728672
280,1.6692059987524921580251904683182
281,1.6699239372987109461073406269862
282,1.6706393258490678008340452245466
283,1.6713521824696002935738462040409
284,1.6720625250351314467437411742821
285,1.6727703712319610014885273366970
286,1.6734757385605075622706563399544
287,1.6741786443379066776537307900358
288,1.6748791057005612590467623011183
289,1.6755771396066489854642298960083
290,1.6762727628385874268213122025000
291,1.6769659920054547266958794600168
292,1.6776568435453687294556776038185
293,1.6783453337278284575167849738189
294,1.6790314786560129756406859927567
295,1.6797152942690397294059008526674
296,1.6803967963441899434074101186322
297,1.6810760004990910109004525939482
298,1.6817529221938651916326513818836
299,1.6824275767332414207124081722724
300,1.6830999792686319791097692205200
301,1.6837701448001744372174809275645
302,1.6844380881787409643956614730895
303,1.6851038241079121776195967597572
304,1.6857673671459191067507379585733
305,1.6864287317075547049480994550991
306,1.6870879320660541674310139921563
307,1.6877449823549412405578376034478
308,1.6883998965698479996603354130346
309,1.6890526885703041849108807580734
310,1.6897033720814964303805777435308
311,1.6903519606960009812025411920930
312,1.6909984678754874119857135344776
313,1.6916429069523947392396256501955
314,1.6922852911315817320962494007303
315,1.6929256334919507409851184072229
316,1.6935639469880464199160567436013
317,1.6942002444516268809879010002674
318,1.6948345385932126323812953257353
319,1.6954668420036104414114143838684
320,1.6960971671554121239123348627504
321,1.6967255264044721789011791174886
322,1.6973519319913603829679053228592
323,1.6979763960427928584432636621384
324,1.6985989305730405925001687292706
325,1.6992195474853171691834696015536
326,1.6998382585731439516106506766258
327,1.7004550755216955351132382162972
328,1.7010700099091226605299943501984
329,1.7016830732078575625257570984110
330,1.7022942767858981846177707696295
331,1.7029036319080726995024968012928
332,1.7035111497372853959228108227764
333,1.7041168413357443106303949062129
334,1.7047207176661687894652457155685
335,1.7053227895929812924845697255528
336,1.7059230678834795011920359078760
337,1.7065215632089916001134505130796
338,1.7071182861460157915703337664759
339,1.7077132471773401081590574528451
340,1.7083064566931486142760944874386
341,1.7088979249921097102681948569545
342,1.7094876622824490363577442871225
343,1.7100756786830066141336476185919
344,1.7106619842242782193169140160963
345,1.7112465888494428051368188740273
346,1.7118295024153734511146448103680
347,1.7124107346936354026168033134040
348,1.7129902953714680129033628437301
349,1.7135681940527541326007154433216
350,1.7141444402589744889419401788023
351,1.7147190434301491423832864452825
352,1.7152920129257657029657267853764
353,1.7158633580256935908058920000314
354,1.7164330879310857551973545298988
355,1.7170012117652682176127409391721
356,1.7175677385746156484020490950484
357,1.7181326773294162162389180063987
358,1.7186960369247249543296565354561
359,1.7192578261812013885392625145425
360,1.7198180538459403653680113637748
361,1.7203767285932878246637333615508
362,1.7209338590256479986866746246210
363,1.7214894536742766331571895731537
364,1.7220435210000652542977604554985
365,1.7225960693943147182561327162051
366,1.7231471071794969205978701512642
367,1.7236966426100075578987942342881
368,1.7242446838729067301881303186295
369,1.7247912390886520168085009391820
370,1.7253363163118197388911538876309
371,1.7258799235318172617780702372646
372,1.7264220686735852938947531046510
373,1.7269627595982901488133160528709
374,1.7275020041040102790105221380210
375,1.7280398099264077729166285245415
376,1.7285761847393962714963153676432
377,1.7291111361557970936008946267582
378,1.7296446717279867375285443741248
379,1.7301767989485375986238322472637
380,1.7307075252508486597097927723134
381,1.7312368580097690298167342466213
382,1.7317648045422114494082148690227
383,1.7322913721077604367953988395891
384,1.7328165679092700394713082037330
385,1.7333403990934548116511058807319
386,1.7338628727514746767013485780606
387,1.7343839959195094238267729639704
388,1.7349037755793267758439368857045
389,1.7354222186588447027584383503915
390,1.7359393320326851702830646610890
391,1.7364551225227196402686838616934
392,1.7369695968986099314561943001105
393,1.7374827618783419140674367965285
394,1.7379946241287506193637000182268
395,1.7385051902660396210770114451141
396,1.7390144668562943396136662034251
397,1.7395224604159888989715346306007
398,1.7400291774124865445387150524187
399,1.7405346242645321875991960016450
400,1.7410388073427413765371799276506
401,1.7415417329700817436956900241226
402,1.7420434074223476731417484183253
403,1.7425438369286310101139150384576
404,1.7430430276717857052802308505472
405,1.7435409857888838592890055573204
406,1.7440377173716692766865295325641
407,1.7445332284670056459608375945888
408,1.7450275250773168489465484621230
409,1.7455206131610222607080197815676
410,1.7460124986329695544227060343313
411,1.7465031873648592713246649414253
412,1.7469926851856647383409721585414
413,1.7474809978820484125270455207161
414,1.7479681311987710761901615061591
415,1.7484540908390981667118741116148
416,1.7489388824651996707492047567369
417,1.7494225116985464313499076096028
418,1.7499049841203000312689260232339
419,1.7503863052717005310473271840561
420,1.7508664806544470438278755489130
421,1.7513455157310750991438221698155
422,1.7518234159253300773377956619149
423,1.7523001866225345508044574073459
424,1.7527758331699531458396915658919
425,1.7532503608771513045105907415792
426,1.7537237750163515534463985156894
427,1.7541960808227847642380956750165
428,1.7546672834950364191946105088093
429,1.7551373881953917949025001096747
430,1.7556064000501729257590195001576
431,1.7560743241500748511925488368698
432,1.7565411655504982961499653396095
433,1.7570069292718741228126885215932
434,1.7574716202999906515428887079550
435,1.7579352435863116748013855983837
436,1.7583978040482930650950944027226
437,1.7588593065696961383919438946418
438,1.7593197560008967551381170624948
439,1.7597791571591908402507972019814
440,1.7602375148290973933744009730151
441,1.7606948337626561493238007140863
442,1.7611511186797234524367921828884
443,1.7616063742682659926057147287035
444,1.7620606051846470224358610050964
445,1.7625138160539143862679748236002
446,1.7629660114700813854920861215589
447,1.7634171959964076494028391016288
448,1.7638673741656732298790967302043
449,1.7643165504804537604757930903585
450,1.7647647294133888324526040604513
451,1.7652119154074510909226066623336
452,1.7656581128762088925530741547701
453,1.7661033262040882679823869377613
454,1.7665475597466305779908929571931
455,1.7669908178307494873906450993355
456,1.7674331047549825537273874398844
457,1.7678744247897421265966387305302
458,1.7683147821775619535692473521205
459,1.7687541811333420067482186855752
460,1.7691926258445911724029472485229
461,1.7696301204716656535074683084152
462,1.7700666691480062983383263943801
463,1.7705022759803734590094972610069
464,1.7709369450490775409597587292173
465,1.7713706804082092122381575269990
466,1.7718034860858664033992365645793
467,1.7722353660843773786374590809531
468,1.7726663243805248939202677697040
469,1.7730963649257639189375291551460
470,1.7735254916464404475280363221223
471,1.7739537084440056638162854781892
472,1.7743810191952297617969970925647
473,1.7748074277524107694004751981191
474,1.7752329379435858811629588028125
475,1.7756575535727342223924051383401
476,1.7760812784199835587717199113006
477,1.7765041162418112845345351240156
478,1.7769260707712443653455134860987
479,1.7773471457180571254129588932969
480,1.7777673447689672735606600250870
481,1.7781866715878287192873536529734
482,1.7786051298158247477493711101302
483,1.7790227230716569338225449064518
484,1.7794394549517326151522987352860
485,1.7798553290303524012326771510598
486,1.7802703488598923034689163101727
487,1.7806845179709873351730854371576
488,1.7810978398727111781495479166899
489,1.7815103180527551441411637303100
490,1.7819219559776042943588688216468
491,1.7823327570927128514711155459944
492,1.7827427248226774923412696153683
493,1.7831518625714084966210105319268
494,1.7835601737222998453435038684114
495,1.7839676616383964621153087195434
496,1.7843743296625618414379459686487
497,1.7847801811176417497870009412070
498,1.7851852193066279448149156901960
499,1.7855894475128194101128881143492
500,1.785992868999983236119379381238
501,1.786395487012510893306599153702
502,1.786797304775577352916333201985
503,1.787198325495294523469193657892
504,1.787598552358866846977848785128
505,1.787997988534741902429550692008
506,1.788396637172761746725744305907
507,1.788794501404312841204409424056
508,1.789191584342474203811525914580
509,1.789587889082162017915900408047
510,1.789983418700276751111919783890
511,1.790378176255846015199942635320
512,1.790772164790167067656301428272
513,1.791165387326947570452163692909
514,1.791557846872445282811734789177
515,1.791949546415607062344863357272
516,1.792340488928205385084530666559
517,1.792730677364973459369827772701
518,1.793120114663740719169312115720
519,1.793508803745565479005754122713
520,1.793896747514867607710557509229
521,1.794283948859558016469156420010
522,1.794670410651169237600848298023
523,1.795056135744983531477725086233
