Eigenstate,Potential Energy
1,0.500000000015948619407702208989431432
2,0.64623093775521886094385689112811335
3,0.73633761001077312605347744401008990
4,0.79966527845117930273298285361344575
5,0.8480465763889955177701518403475883
6,0.8870659985775277558337230391174875
7,0.9197208264543089650111898871482504
8,0.9477838463959533350631416574088390
9,0.9723835574085508191652975575850760
10,0.9942802136405557837893970295017879
11,1.0140093852329282758968717362862152
12,1.0319621674902412720522142532382946
13,1.0484326904782592028787298982034284
14,1.0636476518800918420824177259024358
15,1.0777854328103745824915581464207076
16,1.090988902685710673094687869891886
17,1.103374252686173814160643193715251
18,1.115037246761506540554836766632628
19,1.126057744735097163072297988448403
20,1.136503039937915779452666668469698
21,1.146430365290211171115763867373896
22,1.155888804460250748533840725800040
23,1.164920769800845078633039591051515
24,1.173563159749769955603297418885966
25,1.181848275625692730765660057316001
26,1.189804555435760019773555209239576
27,1.197457166838173507540437129483998
28,1.204828490501229764388576636667064
29,1.211938517305272166935700882577139
30,1.218805177184515449002978138077670
31,1.225444613259764908504269125248312
32,1.231871411835152712098336318993621
33,1.238098796522365935661380263860648
34,1.244138793005294712790832570678919
35,1.250002369618833798095009365708826
36,1.255699557882091973668625248163958
37,1.261239556322179178794829143552000
38,1.266630820294322499900243570429342
39,1.271881140006213508373874222995560
40,1.276997708558668650398132344172683
41,1.281987181497934119286169142572399
42,1.286855729119974039368803216641279
43,1.291609082560594445602656537134425
44,1.296252574537161527603867113652294
45,1.300791175470103037845351201792797
46,1.305229525599245481187719584828248
47,1.309571963616563090603962401771758
48,1.313822552259328229727898797841062
49,1.317985101242990318975033356319911
50,1.32206318785898766834391404311258
51,1.32606017551722963754426606424196
52,1.32997923047464132980778535909178
53,1.33382333695871290719904658411284
54,1.33759531086743448379424663181411
55,1.34129781220352206058912230484887
56,1.34493335638076539587683463223054
57,1.34850432452312973972157437967771
58,1.35201297286244617486605958544386
59,1.35546144132777135913889094291929
60,1.35885176140847295672793971557937
61,1.36218586336353281818353413034640
62,1.36546558284125896390359950783389
63,1.36869266696635553683395083609323
64,1.37186877994498741019626416547504
65,1.37499550823294129608458779800301
66,1.37807436530713786171827512189030
67,1.38110679607648706881426989774237
68,1.38409418096432279073394305755679
69,1.38703783969134009133351904275608
70,1.38993903478503028118379587092513
71,1.39279897483901016309410738895357
72,1.39561881754334363649622792276694
73,1.39839967250490082384069779179200
74,1.40114260387498103360568507213560
75,1.40384863279979477341572393840852
76,1.40651873970795047001269004387604
77,1.40915386644778915440346850129712
78,1.41175491828624457232874170340045
79,1.41432276577985936020523092316409
80,1.41685824652764980104943477969278
81,1.41936216681466233341436535336418
82,1.42183530315430353581739390780828
83,1.42427840373683657534772173942559
84,1.42669218979081281742592037380470
85,1.42907735686364801751436124567552
86,1.43143457602703665018810155568487
87,1.43376449501244046017591995137793
88,1.43606773928146394224556914017461
89,1.43834491303554595464583252400637
90,1.44059660016905345408870792772040
91,1.44282336516954188820437963463955
92,1.44502575396865848386252325330906
93,1.44720429474690241469788038192713
94,1.44935949869521290243993761009745
95,1.45149186073613515261755117150707
96,1.45360186020711220309295108511164
97,1.45568996150826642176992899460862
98,1.45775661471686151552635869969086
99,1.45980225617048244023202972301384
100,1.46182730902082426129675855814414
101,1.46383218375985171003921650268249
102,1.46581727871996560644588465837142
103,1.46778298054970440527664118305160
104,1.46972966466640185776307183883828
105,1.47165769568712870738872968145727
106,1.47356742783915557399682133164022
107,1.47545920535109609851541437557382
108,1.47733336282581018103585742193929
109,1.47919022559607855144595212609304
110,1.48103011006399749169435899597281
111,1.48285332402497666756418713319048
112,1.48466016697717359420025776826424
113,1.48645093041714272384045094525246
114,1.48822589812242838644519817741752
115,1.48998534642179036541662316340545
116,1.49172954445370255895060817939289
117,1.49345875441373346455829434487536
118,1.49517323179137619318796047565448
119,1.49687322559686200566192918816955
120,1.49855897857846552190815509662461
121,1.50023072743077148622194062993245
122,1.50188870299435405866041907535603
123,1.50353313044728740974046135813190
124,1.50516422948888871580199921988001
125,1.50678221451606508613563457875141
126,1.50838729479262075567587427640235
127,1.50997967461186029917490429935197
128,1.51155955345280103558194115998449
129,1.51312712613029571811509264243588
130,1.51468258293934822364538985562443
131,1.51622610979388955089457847364705
132,1.51775788836026645974743644830129
133,1.51927809618568330239549316998895
134,1.52078690682182632107008263550768
135,1.52228448994388157878022279297321
136,1.52377101146515400194047519355144
137,1.52524663364748170583027881127737
138,1.52671151520762616183571569711798
139,1.52816581141981665951902118174749
140,1.52960967421461207059288117552351
141,1.53104325227423836438663558006276
142,1.53246669112455225112435491669311
143,1.53388013322377267916556101885951
144,1.53528371804811473272227254946863
145,1.53667758217445628880707083201458
146,1.53806185936015992341585955532686
147,1.53943668062016435398303543476276
148,1.54080217430146074711346403884338
149,1.54215846615505569252131181267557
150,1.54350567940552448402866408497177
151,1.54484393481825062185302207104127
152,1.54617335076444183532815619482124
153,1.54749404328401157572610694518058
154,1.54880612614640987839618007367034
155,1.55010971090948183018689353584754
156,1.55140490697643150848688260750341
157,1.55269182165096243846067035093920
158,1.55397056019066638655275486294282
159,1.5552412258587241630654450069210
160,1.5565039199739847713201815885667
161,1.5577587419594813994933223149149
162,1.5590057893894437161977447670488
163,1.5602451580348613230796420140313
164,1.5614769419076530009954225466092
165,1.5627012333034903499563577650290
166,1.5639181228433263383997276490333
167,1.5651276995136759940758351726821
168,1.5663300507056919254343768713809
169,1.5675252622530797355707225450629
170,1.5687134184688930718177292942239
171,1.5698946021812485054138114215600
172,1.5710688947679981078751055530361
173,1.5722363761903951263723553043141
174,1.5733971250257886015964206752471
175,1.5745512184993809130152581924663
176,1.5756987325150779578450175353757
177,1.5768397416854652242425645894635
178,1.5779743193609389130854057571622
179,1.5791025376580185532545944546973
180,1.5802244674868720567892609557866
181,1.5813401785780758624686250029942
182,1.5824497395086378631765525424922
183,1.5835532177273061662921888122876
184,1.5846506795791879286122792014473
185,1.5857421903297000738979669626096
186,1.5868278141878728616348665140710
187,1.5879076143290301074730059057765
188,1.5889816529168614916303218630580
189,1.5900499911249106863163615072810
190,1.5911126891574949532198390548402
191,1.5921698062700754335773570000271
192,1.5932214007890945129911707349934
193,1.5942675301312985648081574836784
194,1.5953082508225594128062375634800
195,1.5963436185162124455100520002502
196,1.5973736880109250739982521065751
197,1.5983985132681099084854202591664
198,1.5994181474288968156194455608862
199,1.6004326428306766903095362212408
200,1.6014420510232308822455897064015
201,1.6024464227844572534873896180084
202,1.6034458081357062432346336471798
203,1.6044402563567375944595290054092
204,1.6054298160003093572631324492534
205,1.6064145349064091342671363013760
206,1.6073944602161405867377011632954
207,1.6083696383852710720664834948597
208,1.6093401151974546340131513359474
209,1.6103059357771360885366394027986
210,1.6112671446021477008138409817210
211,1.6122237855160058124017898877102
212,1.6131759017399176456650999307505
213,1.6141235358845026633561629921600
214,1.6150667299612434590314060863918
215,1.6160055253936653845278021617288
216,1.6169399630282588689498345074754
217,1.6178700831451483882019275027845
218,1.6187959254685170575088728256804
219,1.6197175291767901198527071375452
220,1.6206349329125898384462619767475
221,1.6215481747924596955255046503213
222,1.6224572924163750948183741360294
223,1.6233623228770341285133676178168
224,1.6242633027689434680180549742298
225,1.6251602681973019350419098570255
226,1.6260532547866852909361179157802
227,1.6269422976895408871284711201196
228,1.6278274315944939868443479694525
229,1.6287086907344729102486695584695
230,1.6295861088946576892367598463927
231,1.6304597194202540211281192214618
232,1.6313295552241029301672464943400
233,1.6321956487941211223192243294419
234,1.6330580322005881794090426100084
235,1.6339167371032737636876884246970
236,1.6347717947584145315759492518979
237,1.6356232360255443766954938275605
238,1.6364710913741797331803932520491
239,1.6373153908903653748308249033831
240,1.6381561642830828635071366555618
241,1.6389934408905259280935869848740
242,1.6398272496862456299623030261411
243,1.6406576192851693456903054702257
244,1.6414845779494952552453367997745
245,1.6423081535944667087303954356484
246,1.6431283737940289902334169722719
247,1.6439452657863698605463038447637
248,1.6447588564793514592859005917811
249,1.6455691724558285349107102037863
250,1.6463762399788633867321989749157
251,1.6471800849968354183257051875955
252,1.6479807331484481002339833569850
253,1.6487782097676384135594499937190
254,1.6495725398883884306951891537560
255,1.6503637482494429126170904350302
256,1.6511518592989330074967494195069
257,1.6519368971989124413724252797209
258,1.6527188858298026449296140207903
259,1.6534978487947536192345362467835
260,1.6542738094239209261177672954557
261,1.6550467907786591162578521131314
262,1.6558168156556363196897836392714
263,1.6565839065908688486177333038530
264,1.6573480858636812626826367690393
265,1.6581093755005904212096623031774
266,1.6588677972791156894652914800593
267,1.6596233727315185114533307524824
268,1.6603761231484713822462094693281
269,1.6611260695826604890478569853546
270,1.6618732328523177444095760054954
271,1.6626176335446914948323215745414
272,1.6633592920194498835964724381845
273,1.6640982284120243102102173777943
274,1.6648344626368901947708109581903
275,1.6655680143907889220946276215257
276,1.6662989031558892432447450964452
277,1.6670271482028956177463407657030
278,1.6677527685940952504136767895716
279,1.6684757831863553252334287662262
280,1.6691962106340625291500496462499
281,1.6699140693920127545563979558955
282,1.6706293777182484767377543425750
283,1.6713421536768470186955827242901
284,1.6720524151406568598661885691824
285,1.6727601797939887959745001691471
286,1.6734654651352579747483852378155
287,1.6741682884795818667643115689292
288,1.6748686669613305731801435976612
289,1.6755666175366341183991986105462
290,1.6762621569858474601723945919519
291,1.6769553019159710580587613087581
292,1.6776460687630298851303714729274
293,1.6783344737944147886761292068627
294,1.6790205331111812367984536921851
295,1.6797042626503075380276487416978
296,1.6803856781869201194933654437822
297,1.6810647953364757953575512051183
298,1.6817416295569103422398223339661
299,1.6824161961507501844700643089170
300,1.6830885102671889397507476542385
301,1.6837585869041292366438740828707
302,1.6844264409101918967919858307082
303,1.6850920869866896549788784193973
304,1.6857555396895689945361880241958
305,1.6864168134313215265989215012978
306,1.6870759224828641764065097884768
307,1.6877328809753853585992876892959
308,1.6883877029021646199357186310522
309,1.6890404021203618386922321883690
310,1.6896909923527763158887168685279
311,1.6903394871895793532391206014304
312,1.6909859000900178309560543131128
313,1.6916302443840901781549016253548
314,1.6922725332741965401275996387233
315,1.6929127798367624621255205683848
316,1.6935509970238374652901150142397
317,1.6941871976646660533328540220662
318,1.6948213944672365012059930300207
319,1.6954536000198045673225749510147
320,1.6960838267923921305805916080446
321,1.6967120871382646711221576443987
322,1.6973383932953837092549486134325
323,1.6979627573878377165719003280232
324,1.6985851914272504764050147246970
325,1.6992057073141686555908375605201
326,1.6998243168394268247705615583545
327,1.7004410316854927479767496836819
328,1.7010558634277901306976645222033
329,1.7016688235360038012740913817378
330,1.7022799233753637572911211647302
331,1.7028891742079095155374316289438
332,1.7034965871937358267521867299922
333,1.7041021733922201336935970184305
334,1.7047059437632299565308352640459
335,1.7053079091683145204701153455053
336,1.7059080803718766836448895241136
337,1.7065064680423280374943363886504
338,1.7071030827532282384601684723898
339,1.7076979349844046354870295091506
340,1.7082910351230582846447954336764
341,1.7088823934648520644282991997332
342,1.7094720202149833888621243356730
343,1.7100599254892411561774755345821
344,1.7106461193150469267462052286821
345,1.7112306116324821495840575567686
346,1.7118134122952989121959917633809
347,1.7123945310719177790999720078418
348,1.7129739776464095307312422670337
349,1.7135517616194643476294134887086
350,1.7141278925093459822268809611570
351,1.7147023797528330058203679365998
352,1.7152752327061468130689134482489
353,1.7158464606458656683745042063557
354,1.7164160727698262086005398538504
355,1.7169840781980127673900143349138
356,1.7175504859734327308512188516188
357,1.7181153050629811636342674065582
358,1.7186785443582939493849164189636
359,1.7192402126765851906998240501044
360,1.7198003187614778064881599201841
361,1.7203588712838190715944261381913
362,1.7209158788424875802687941146043
363,1.7214713499651862290844841392516
364,1.7220252931092262432828610133866
365,1.7225777166623004829002614596361
366,1.7231286289432449063336748618775
367,1.7236780382027910833431760185856
368,1.7242259526243065462077505135109
369,1.7247723803245276115683212103782
370,1.7253173293542803861215733223988
371,1.7258608076991928094622595382923
372,1.7264028232803966905421888548173
373,1.7269433839552197044502634442529
374,1.7274824975178716579824488184644
375,1.7280201717001157155604531285762
376,1.7285564141719360417041551727385
377,1.7290912325421936492577283684522
378,1.7296246343592736207701309551305
379,1.7301566271117255428211216503890
380,1.7306872182288939100469666624686
381,1.7312164150815413742907565885950
382,1.7317442249824619570366129954081
383,1.7322706551870888997784479739767
384,1.7327957128940921160130989133719
385,1.7333194052459688661011749224853
386,1.7338417393296283136369760775960
387,1.7343627221769657126511022693437
388,1.7348823607654301624317506833880
389,1.7354006620185866046366717946671
390,1.7359176328066692517872544222376
391,1.7364332799471267640709106517567
392,1.7369476102051627828128453783975
393,1.7374606302942692940878585028088
394,1.7379723468767514035526916317294
395,1.7384827665642463793547157722692
396,1.7389918959182366139672509790068
397,1.7394997414505561348424015761943
398,1.7400063096238906719979180232160
399,1.7405116068522698483114326001123
400,1.7410156395015557924617404520194
401,1.7415184138899242234185478215033
402,1.7420199362883387516785140551953
403,1.7425202129210212179693006809108
404,1.7430192499659159624922956006063
405,1.7435170535551454901306918436338
406,1.7440136297754636406385281585942
407,1.7445089846687033805116619587036
408,1.7450031242322167197158550802473
409,1.7454960544193096143295977202541
410,1.7459877811396743695608653281930
411,1.7464783102598138031364897827469
412,1.7469676476034607516338976706228
413,1.7474557989519939987956164164161
414,1.7479427700448470496521522093187
415,1.7484285665799140343965695717932
416,1.7489131942139491716240292611429
417,1.7493966585629626394033914105212
418,1.7498789652026100173976647461038
419,1.7503601196685795785252045085599
420,1.7508401274569724120637290628875
421,1.7513189940246793303611931063139
422,1.7517967247897538407359614929492
423,1.7522733251317790186863408365506
424,1.7527488003922318961139488085590
425,1.7532231558748417439003369093185
426,1.7536963968459458556563444966581
427,1.7541685285348403172526565231355
428,1.7546395561341257757982595025320
429,1.7551094848000521204322755903014
430,1.7555783196528549370130730637321
431,1.7560460657770912403361210061356
432,1.7565127282219716333721258556590
433,1.7569783120016842313991090580749
434,1.7574428220957214489415464823235
435,1.7579062634491974731671857035882
436,1.7583686409731643247066145278057
437,1.7588299595449246672406581552117
438,1.7592902240083403478939380284041
439,1.7597494391741373497132710839334
440,1.7602076098202082274177515044750
441,1.7606647406919091862464511955884
442,1.7611208365023553675229438881035
443,1.7615759019327139886037117029932
444,1.7620299416324899565535673211245
445,1.7624829602198132861779379297926
446,1.7629349622817193467315296581271
447,1.7633859523744291064428566561740
448,1.7638359350236225930251684452806
449,1.7642849147247134106480033200086
450,1.7647328959431164657792952093684
451,1.7651798831145164049604859014519
452,1.7656258806451296058306069772597
453,1.7660708929119654644385534353557
454,1.7665149242630833677594873803437
455,1.7669579790178489752535833067605
456,1.7674000614671851064326483746249
457,1.7678411758738219301068181791920
458,1.7682813264725428511726970980658
459,1.7687205174704286088327377968590
460,1.7691587530470992285525489356742
461,1.7695960373549516774447142398086
462,1.7700323745193964360929285126475
463,1.7704677686390915905501005618263
464,1.7709022237861726053785452795634
465,1.7713357440064817464300271826828
466,1.7717683333197942840236905230025
467,1.7721999957200407569995435837744
468,1.7726307351755303132486525601274
469,1.7730605556291676033773916626536
470,1.7734894609986707520060213024671
471,1.7739174551767846737677119046567
472,1.7743445420314940315788760699755
473,1.7747707254062311880410701561755
474,1.7751960091200866539265378763057
475,1.7756203969680109564589325427964
476,1.7760438927210204411517767377447
477,1.7764665001263973401566543604531
478,1.7768882229078887830654102708664
479,1.7773090647659036395045351180074
480,1.7777290293777075880570928448084
481,1.7781481203976149623397528696391
482,1.7785663414571809429742908917406
483,1.7789836961653894754020728047690
484,1.7794001881088397332464870128755
485,1.7798158208519326040493905821807
486,1.7802305979370517821231061235803
487,1.7806445228847463172476765467822
488,1.7810575991939092156470796872501
489,1.7814698303419553212891751526185
490,1.7818812197849963404986175370664
491,1.7822917709580151440269121307430
492,1.7827014872750379346252340140847
493,1.7831103721293042549854939610575
494,1.7835184288934359299440010667533
495,1.7839256609196031352948544653464
496,1.7843320715396908374838920602309
497,1.7847376640654612895506107950482
498,1.7851424417887165284157581602158
499,1.7855464079814583706774391003024
500,1.785949565896048037226301301970
501,1.786351918765361152527356084528
502,1.786753469802945573554047223821
503,1.787154222203173516301902703760
504,1.787554179141395823516600482433
505,1.787953343774091220895511082233
506,1.788351719239016291639389518699
507,1.788749308655354017166902109746
508,1.789146115123860523732418413482
509,1.789542141727008265614797641673
510,1.789937391529131697887774303361
511,1.790331867576568669619292505933
512,1.790725572897801437464524382997
513,1.791118510503595915157907789253
514,1.791510683387139835134207979439
515,1.791902094524180196344379354270
516,1.792292746873158208422263436693
517,1.792682643375342806760194952039
518,1.793071786954964523698592419589
519,1.793460180519346497592944073855
520,1.793847826959035476581473842039
521,1.794234729147929612101505858352
522,1.794620889943407318175702149341
523,1.795006312186453633445071450979
