Eigenstate,Potential Energy
1,0.500000000032024761915481591911827901
2,0.64623093786015550915406313202049579
3,0.73633761031901591598036014681993517
4,0.79966527909321341880021426427978504
5,0.8480465775011290660263694038015677
6,0.8870660002984538083152240559569022
7,0.9197208289238385061036738309765295
8,0.9477838497544865450435341193385893
9,0.9723835617968309424589204733158186
10,0.9942802191995439500260310234066427
11,1.0140093921037352598769594380149745
12,1.0319621758140882687806029122982266
13,1.0484327003964543983766960521974835
14,1.0636476635340160745646985394144450
15,1.0777854463414724874622553486121888
16,1.090988918235485273050312677566492
17,1.103374270396183348852153620748434
18,1.115037266773362799716668188246511
19,1.126057767190464854032422746750111
20,1.136503064978512624685337063343738
21,1.146430393057808531682630544694953
22,1.155888835096674633692548354866376
23,1.164920803447977443949994566922688
24,1.173563196549550220024836760271277
25,1.181848315720119462284797915346168
26,1.189804598966892752660280446777747
27,1.197457213948134663524686318437388
28,1.204828541332206656946499861188872
29,1.211938571999519072751733218423326
30,1.218805235884355734310104828491791
31,1.225444676107593200714425136517993
32,1.231871478973437109180191595945772
33,1.238098868093650247282837252906615
34,1.244138869152200728445109912279162
35,1.250002450484063578363009873318478
36,1.255699643608430161502211337129260
37,1.261239647052495328283916761133446
38,1.266630916171573420446903702126928
39,1.271881241173445622565592008876166
40,1.276997815159020364170121221553709
41,1.281987293674638203204365260582021
42,1.286855847016360020062646677498658
43,1.291609206320091006538986471042438
44,1.296252704303298918527187876622774
45,1.300791311386515492320924822869245
46,1.305229667809673641776685805354332
47,1.309572112264856441277364702899780
48,1.313822707489447535191926524304281
49,1.317985263199010070635039243281503
50,1.32206335668509853668166978657510
51,1.32606035135774093072290512455070
52,1.32997941347398345835303731492010
53,1.33382352726143985463469260171065
54,1.33759550861822628313500608562125
55,1.34129801754718727661599479231647
56,1.34493356946224361313886720492899
57,1.34850454548749405622445572724526
58,1.35201320185490570142238085396752
59,1.35546167849367372436741417680238
60,1.35885200689330681770030369740501
61,1.36218611731293037672653605535250
62,1.36546584540099848857379885914192
63,1.36869293828236389058893223531730
64,1.37186906016334258379365450738314
65,1.37499579749987494724595806978621
66,1.37807466376903786010043662312365
67,1.38110710387990004683529213894014
68,1.38409449825595670030553862241623
69,1.38703816661806676655542455814008
70,1.38993937149388800705916562925887
71,1.39279932147720625032831644441151
72,1.39561917425825700244423231617144
73,1.39840003944408457967088132648490
74,1.40114298118616507775047758735620
75,1.40384902063088839138155765919151
76,1.40651913820704494062387786753874
77,1.40915427576316036255650922534232
78,1.41175533856635562833531876843648
79,1.41432319717336322580382724991234
80,1.41685868918339192216694837256715
81,1.41936262088168327976062567202288
82,1.42183576878184164739677757527973
83,1.42427888107433061597331985186635
84,1.42669267898790463532294179836885
85,1.42907785807018521310057781074301
86,1.43143508939307525112019288395138
87,1.43376502068824760375166248802630
88,1.43606827741752056525276957288854
89,1.43834546378254949074983972263571
90,1.44059716367792053885128093489119
91,1.44282394159141107182756066970452
92,1.44502634345489295175201859573530
93,1.44720489744909271594128794110715
94,1.44936011476517968629596424055044
95,1.45149249032593191311316834122487
96,1.45360250346902803182616882466427
97,1.45569061859482876901671509767615
98,1.45775728578083895975084875627309
99,1.45980294136488746610004952451395
100,1.46182800849891604629328834006411
101,1.46383289767513891979122103736012
102,1.46581800722620919885261294760785
103,1.46778372380092044355016597429690
104,1.46973042281686433248265886475300
105,1.47165846889137236767318333421316
106,1.47356821625197876789973214582313
107,1.47546000912756362274890688819117
108,1.47733418212125614012909831733476
109,1.47919106056610922644543431309311
110,1.48103096086449421851359118615697
111,1.48285419081209872509116256498279
112,1.48466104990736110227175982917985
113,1.48645182964711955119291320660433
114,1.48822681380920506875257964072189
115,1.48998627872266703352643180130109
116,1.49173049352627187742991325030525
117,1.49345972041588358066226956153139
118,1.49517421488129369636423134728326
119,1.49687422593303489770466874720141
120,1.49855999631968619787663138792015
121,1.50023176273613972623893463234842
122,1.50188975602328003070664492902715
123,1.50353420135949468356186194318220
124,1.50516531844441728804754031912874
125,1.50678332167527441684395388292742
126,1.50838842031619281622987427704311
127,1.50998081866080263184416596308769
128,1.51156071618844982477364132860814
129,1.51312830771431887345476769366303
130,1.51468378353374847500974350132915
131,1.51622732956100755551927814776778
132,1.51775912746278392153376831629336
133,1.51927935478662610354025830082970
134,1.52078818508456766614422749935312
135,1.52228578803214515138239698316511
136,1.52377232954301713405240441391675
137,1.52524797187937856000190432391748
138,1.52671287375835092632872486150160
139,1.52816719045452675653830581646992
140,1.52961107389883137773633090321218
141,1.53104467277386044944441446706536
142,1.53246813260584362035991652080588
143,1.53388159585337603921128842102487
144,1.53528520199305226622373731750514
145,1.53667908760213294395061396915675
146,1.53806338643836671747527654748310
147,1.53943822951708169102197900815359
148,1.54080374518566174998106575495562
149,1.54216005919550954927958283091799
150,1.54350729477159980895108314577020
151,1.54484557267971883113474469352104
152,1.54617501129148053764918094221800
153,1.54749572664720797780984242486022
154,1.54880783251676420570660341408493
155,1.55011144045841076290874742942581
156,1.55140665987577163293431530628127
157,1.55269359807297371406057506379468
158,1.55397236030803562855030189854949
159,1.5552430498445685411002087263152
160,1.5565057680018553240224068163194
161,1.5577606142033665652508927074748
162,1.5590076860237728802455265917221
163,1.5602470792345083810638801180679
164,1.5614788878479399391670739818755
165,1.5627032041601908421483716449923
166,1.5639201187926693599442290734107
167,1.5651297207323494528184772772926
168,1.5663320973708463100042838060930
169,1.5675273345423317810654168874535
170,1.5687155165603294430638841995426
171,1.5698967262534294979655911080863
172,1.5710710449999613669132348336380
173,1.5722385527616593836681541767532
174,1.5733993281163574307063641985308
175,1.5745534482897465028727919230524
176,1.5757009891862249049176204325628
177,1.5768420254188743434233287501697
178,1.5779766303385910674896811587626
179,1.5791048760623985030934885514073
180,1.5802268335009723274931629622563
181,1.5813425723854006322352016734001
182,1.5824521612932068701189861817018
183,1.5835556676736586353647832393865
184,1.5846531578723865184919314263534
185,1.5857446971553348440014349668027
186,1.5868303497320652594529326683570
187,1.5879101787784369764043767789984
188,1.5889842464586790994991995596901
189,1.5900526139468787747592909764687
190,1.5911153414479008081287915086757
191,1.5921724882177579767874183580520
192,1.5932241125834484154028280149061
193,1.5942702719622783811355394656695
194,1.5953110228806837381443121135275
195,1.5963464209925680939151021349139
196,1.5973765210971712792777762556502
197,1.5984013771564825473949250784521
198,1.5994210423122126536652888905885
199,1.6004355689023376503586245813439
200,1.6014450084772283361442125805344
201,1.6024494118153763368931588433782
202,1.6034488289387301938672699472975
203,1.6044433091276521139776558993839
204,1.6054329009355069969761887367340
205,1.6064176522028937048929457110897
206,1.6073976100715315924182325846361
207,1.6083728209978081688558595497124
208,1.6093433307660021130538421138063
209,1.6103091845011873841414870772755
210,1.6112704266818299236734285690348
211,1.6122271011520843081383931953835
212,1.6131792511338005789562822449593
213,1.6141269192382456278531497614245
214,1.6150701474775541132988769665786
215,1.6160089772759081142339780371992
216,1.6169434494804594755374509147179
217,1.6178736043719988042727048413878
218,1.6187994816753800891559297334173
219,1.6197211205697042161775617854324
220,1.6206385596982738884988017066866
221,1.6215518371783178529075440211534
222,1.6224609906105016301933404076474
223,1.6233660570882183102667068173273
224,1.6242670732066744713150780515935
225,1.6251640750717737795319920148772
226,1.6260570983088018073540571916627
227,1.6269461780709207130462151806765
228,1.6278313490474755918283312577742
229,1.6287126454721196506802134072516
230,1.6295901011307628930552998039197
231,1.6304637493693461027591140195985
232,1.6313336231014505358991046654475
233,1.6321997548157383063956269198851
234,1.6330621765832396111056698880391
235,1.6339209200644799656443658208153
236,1.6347760165164571496578545436194
237,1.6356274967994714816593837955819
238,1.6364753913838111544241880846679
239,1.6373197303562980665073742772229
240,1.6381605434266963032854935076196
241,1.6389978599339875488536714174158
242,1.6398317088525162847110433792263
243,1.6406621187980088059905019353053
244,1.6414891180334677434503805922061
245,1.6423127344749464643211955508622
246,1.6431329956972058705561364651675
247,1.6439499289392549762523968240165
248,1.6447635611097828447785202812510
249,1.6455739187924768541042867575703
250,1.6463810282512376744348637636292
251,1.6471849154352888575569491517222
252,1.6479856059841838357927629938298
253,1.6487831252327154021606879095937
254,1.6495774982157273279958338439569
255,1.6503687496728319974553717000052
256,1.6511569040530341436716863255249
257,1.6519419855192670772932395486489
258,1.6527240179528378514678497651696
259,1.6535030249577881661148077502896
260,1.6542790298651713971859379387443
261,1.6550520557372460639689080509866
262,1.6558221253715904591604218881707
263,1.6565892613051372915921648480332
264,1.6573534858181337917631073075097
265,1.6581148209380258047065908783369
266,1.6588732884432680372251946702185
267,1.6596289098670636720259649888162
268,1.6603817065010333817558576496323
269,1.6611316993988180121368688027939
270,1.6618789093796106576258447272076
271,1.6626233570316274128360186124210
272,1.6633650627155107785646300233540
273,1.6641040465676731648213180418205
274,1.6648403285035776991552956586790
275,1.6655739282209602151406711398661
276,1.6663048652029906986527040782420
277,1.6670331587213816752284184214531
278,1.6677588278394352924396786325247
279,1.6684818914150405997268155203082
280,1.6692023681036131185427120668671
281,1.6699202763609845916142876847790
282,1.6706356344462404075734567138338
283,1.6713484604245079133879470511539
284,1.6720587721696927711107919168213
285,1.6727665873671701661936941913961
286,1.6734719235164268920926586931068
287,1.6741747979336593704416144899371
288,1.6748752277543240085539342975029
289,1.6755732299356445422998870230793
290,1.6762688212590770968715292842171
291,1.6769620183327308063594561583031
292,1.6776528375937468770320221255456
293,1.6783412953106400000755594016815
294,1.6790274075855971506948990649566
295,1.6797111903567358607024705541408
296,1.6803926594003295501410915334322
297,1.6810718303329898496486516378304
298,1.6817487186138152303008371254540
299,1.6824233395465027437710743586664
300,1.6830957082814246233956579787050
301,1.6837658398176701575631143858913
302,1.6844337490050549283425332402815
303,1.6850994505460945884615743385120
304,1.6857629589979467541450143785497
305,1.6864242887743224423226620060166
306,1.6870834541473663154075205646029
307,1.6877404692495029156001674785833
308,1.6883953480752563671492916367317
309,1.6890481044830396358361375910514
310,1.6896987521969136808308885386412
311,1.6903473048083200938260853313751
312,1.6909937757777847385818244922565
313,1.6916381784365937836331087180206
314,1.6922805259884439324359805922138
315,1.6929208315110661705969626571173
316,1.6935591079578244058309213225298
317,1.6941953681592865392540008435965
318,1.6948296248247733192597930525183
319,1.6954618905438821195426763965782
320,1.6960921777879856425296162831105
321,1.6967204989117094671572764115380
322,1.6973468661543845554281639279325
323,1.6979712916414782317876035691275
324,1.6985937873860026124643373393918
325,1.6992143652899022467583936742473
326,1.6998330371454192075059316964082
327,1.7004498146364384514794581652289
328,1.7010647093398106389210896198285
329,1.7016777327266573870709678345739
330,1.7022888961636553893593954045397
331,1.7028982109143008388426897538446
332,1.7035056881401552171097503890499
333,1.7041113389020728272004253988380
334,1.7047151741614082545446839679086
335,1.7053172047812080708404199265132
336,1.7059174415273828389074454019688
337,1.7065158950698622907491837450164
338,1.7071125759837347376597053146735
339,1.7077074947503667768687024489002
340,1.7083006617585093860508290639879
341,1.7088920873053861192626050365556
342,1.7094817815977659014422639218101
343,1.7100697547530200592477287470186
344,1.7106560168001635819258768183304
345,1.7112405776808824315332282891852
346,1.7118234472505443772894213362327
347,1.7124046352791969194080351937698
348,1.7129841514525491141155937473988
349,1.7135620053729408447690886961617
350,1.7141382065602970814000958753275
351,1.7147127644530692162752905557690
352,1.7152856884091631578261136989818
353,1.7158569877068534673127032517923
354,1.7164266715456849526863519983977
355,1.7169947490473620849215920850344
356,1.7175612292566244465952966103233
357,1.7181261211421114517454801678177
358,1.7186894335972155810056897413423
359,1.7192511754409198771492978139223
360,1.7198113554186286389580080525541
361,1.7203699822029830582795915613426
362,1.7209270643946682818715572572193
363,1.7214826105232064936398771431403
364,1.7220366290477410412642209005465
365,1.7225891283578098435742932794118
366,1.7231401167741069563446408099407
367,1.7236896025492351885167131584855
368,1.7242375938684465575759933103084
369,1.7247840988503752166286415600853
370,1.7253291255477585663525035718888
371,1.7258726819481494051316569393347
372,1.7264147759746180738538028574327
373,1.7269554154864445620869581814598
374,1.7274946082798048841154370624927
375,1.7280323620884424164064713632007
376,1.7285686845843356527237098266938
377,1.7291035833783541661008677571206
378,1.7296370660209059450872796334782
379,1.7301691400025779440701207116718
380,1.7306998127547666044392673792806
381,1.7312290916503012220331885640120
382,1.7317569840040572790377380781244
383,1.7322834970735644150020229032587
384,1.7328086380596040006738766192842
385,1.7333324141067999359127293136462
386,1.7338548323042033303339124680204
387,1.7343758996858668160226015131720
388,1.7348956232314124291171629785491
389,1.7354140098665937349479993465260
390,1.7359310664638493858379440125805
391,1.7364467998428484285047612725508
392,1.7369612167710309694420045697266
393,1.7374743239641416717633751179131
394,1.7379861280867546646066336563838
395,1.7384966357527927219678736723200
396,1.7390058535260403618326848287810
397,1.7395137879206504955098802132167
398,1.7400204454016446353011579099354
399,1.7405258323854052262960040418792
400,1.7410299552401644022475090834939
401,1.7415328202864852144476489833141
402,1.7420344337977360788166999400984
403,1.7425348020005612619450666492536
404,1.7430339310753452991759753358352
405,1.7435318271566688101732481790750
406,1.7440284963337618210071184660496
407,1.7445239446509517094776109156541
408,1.7450181781081032768685068097386
409,1.7455112026610538072079052740201
410,1.7460030242220456285140077950128
411,1.7464936486601504360429124830215
412,1.7469830818016889601282480435617
413,1.7474713294306470576716849279818
414,1.7479583972890846511306186634935
415,1.7484442910775417989655436919009
416,1.7489290164554383271814201735671
417,1.7494125790414698704501104936214
418,1.7498949844139974860521088712282
419,1.7503762381114351191500336449792
420,1.7508563456326299013178984823873
421,1.7513353124372392345116141093184
422,1.7518131439461039420853750036872
423,1.7522898455416153229962733739507
424,1.7527654225680797229242213902656
425,1.7532398803320770016694654562728
426,1.7537132241028165036708441215459
427,1.7541854591124880162761418177858
428,1.7546565905566077294561844527691
429,1.7551266235943631093511134970442
430,1.7555955633489495477586909103146
431,1.7560634149079062912197381392590
432,1.7565301833234487992188251147978
433,1.7569958736127928693981087929222
434,1.7574604907584816277247716023780
435,1.7579240397087032072879747421675
436,1.7583865253776070167179792288222
437,1.7588479526456167595986077727522
438,1.7593083263597391869401393577518
439,1.7597676513338692640180676200700
440,1.7602259323490928227932984477009
441,1.7606831741539838597684425043332
442,1.7611393814649000429282718843212
443,1.7615945589662760754612376093051
444,1.7620487113109095356345150845857
445,1.7625018431202485234833995107940
446,1.7629539589846721386648486440074
447,1.7634050634637709586459006962211
448,1.7638551610866207354295140225365
449,1.7643042563520571513239270666846
450,1.7647523537289437861977992246379
451,1.7651994576564407993170459938614
452,1.7656455725442671671125667091153
453,1.7660907027729622199523321996845
454,1.7665348526941428668676704299882
455,1.7669780266307601321078130344815
456,1.7674202288773503005231501934639
457,1.7678614637002853674854834388387
458,1.7683017353380191892433692165767
459,1.7687410480013318476392290435020
460,1.7691794058735718715323989975515
461,1.7696168131108941646556559134913
462,1.7700532738424968529567317958200
463,1.7704887921708556551981835459076
464,1.7709233721719539377239221676577
465,1.7713570178955124221299871554430
466,1.7717897333652156765394402310264
467,1.7722215225789346710001442353240
468,1.7726523895089504126487192640218
469,1.7730823381021711373423359565246
470,1.7735113722803505822996366024295
471,1.7739394959403016068636338466842
472,1.7743667129541094590010449464133
473,1.7747930271693400384439290737049
474,1.7752184424092506604723371053146
475,1.7756429624729922430961906246652
476,1.7760665911358154314462478437829
477,1.7764893321492709923753842797073
478,1.7769111892414091552632178410253
479,1.7773321661169767884107891225373
480,1.7777522664576128056134135728515
481,1.7781714939220403537889751074765
482,1.7785898521462593504542034605196
483,1.7790073447437347510496257857332
484,1.7794239753055833658720254326881
485,1.7798397474007607034957805620331
486,1.7802546645762424254786640672703
487,1.7806687303572072611400308261856
488,1.7810819482472159788995571656000
489,1.7814943217283896422818047764311
490,1.7819058542615850136340503823310
491,1.7823165492865692397596847214329
492,1.7827264102221924075763633335393
493,1.7831354404665579447239492446210
494,1.7835436433971919590799988664682
495,1.7839510223712097095937257344688
496,1.7843575807254824527734141069631
497,1.7847633217768003502610528393077
498,1.7851682488220353826578006525320
499,1.7855723651383017668311273162778
500,1.785975673983116007083028779335
501,1.786378178594552326097622396952
502,1.786779882191400930722082674909
503,1.787180787973320580584114461673
504,1.787580899120993303250504399799
505,1.787980218796274103262736394210
506,1.788378750142341395000876074265
507,1.788776496283846007265302453071
508,1.789173460327058399394519127833
509,1.789569645360012319667568536336
510,1.789965054452650959079706503347
511,1.790359690656968831422600709126
512,1.790753557007153279716877154370
513,1.791146656519724224585285786395
514,1.791538992193672830884630846234
515,1.791930567010599466747756380219
516,1.792321383934849165281167846684
517,1.792711445913645663566917162871
518,1.793100755877225804264134041741
519,1.793489316738971081668981824148
520,1.793877131395539189148388412135
521,1.794264202726992363093791257728
522,1.794650533596926799513600130995
523,1.795036126852599580339748390174
