Eigenstate,Potential Energy
1,0.500000000085025818635843511992712173
2,0.64623093820612000019759465975404856
3,0.73633761133526422758685828021189535
4,0.79966528120995840753018304711019898
5,0.8480465811677994139696731398544683
6,0.8870660059723658339429598467225830
7,0.9197208370660251772025779771837117
8,0.9477838608279607046621410844705651
9,0.9723835762657801881715572328996638
10,0.9942802375289242859594486389573786
11,1.0140094147590524756929063752137748
12,1.0319622032612749843875818662599750
13,1.0484327331017991923542788223670398
14,1.0636477019641225898071289850024732
15,1.0777854909632366245139827447688474
16,1.090988969516083748292100861590473
17,1.103374328803069648483724397849123
18,1.115037332774268096700835405147872
19,1.126057841253402347004825882860684
20,1.136503147571784294073798632185575
21,1.146430484650013640890804745391609
22,1.155888936156719515308649628325852
23,1.164920914445086249605694810640948
24,1.173563317953276405234260653171990
25,1.181848448000357840841541188739668
26,1.189804742593891999124127890313638
27,1.197457369392510173393516960636359
28,1.204828709064953696403902693310038
29,1.211938752492026166110817414747129
30,1.218805429608418249244209239145531
31,1.225444883535427100301396375795511
32,1.231871700577692846532909521329308
33,1.238099104347426783684932405541014
34,1.244139120529059659874997694954798
35,1.250002717458043358371020072117306
36,1.255699926654060410821544617921950
37,1.261239946644811223465706783468005
38,1.266631232786130155330152616831808
39,1.271881575286332937612265731922136
40,1.276998167246877139680458126869194
41,1.281987664214667113227628770190889
42,1.286856236486342244472914196177077
43,1.291609615198400999283724286317414
44,1.296253133068919230501396981969456
45,1.300791760519051647689720862508355
46,1.305230137789369066878575778289014
47,1.309572603572607445500291770164247
48,1.313823220606818343433572858296239
49,1.317985798608247907144975662081519
50,1.32206391486914876024145223506680
51,1.32606093280026222125614379489151
52,1.32998001865936305517417204526467
53,1.33382415667480884664612779681695
54,1.33759616274547495136993041975705
55,1.34129869687498048960055604035802
56,1.34493427447803627561431466534232
57,1.34850527667954661182870826168987
58,1.35201395971229968998273453919606
59,1.35546246350632739450216114617580
60,1.35885281955199079546852158786748
61,1.36218695810928339110229246232437
62,1.36546671482754315455457744318216
63,1.36869383683252255077828533234047
64,1.37186998833145320932567376796765
65,1.37499675578120709894465060706983
66,1.37807565265980871079019221765013
67,1.38110812387729046574024196630046
68,1.38409554985812740049567126541793
69,1.38703925032417451641621601782346
70,1.38994048780410190677879957712550
71,1.39280047089272407441366804758241
72,1.39562035728132160929219236249054
73,1.39840125657800038923707086745144
74,1.40114423293531461837161502690129
75,1.40385030750074891682191105891484
76,1.40652046070420511842945462518418
77,1.40915563439533703481394935384149
78,1.41175673384241064594511413376608
79,1.41432462960332035739002822154155
80,1.41686015927845383875758503275938
81,1.41936412915424861638533409483036
82,1.42183731574552214275988948720252
83,1.42428046724396833137240575929811
84,1.42669430487958925399453722220611
85,1.42907952420127142118642008403193
86,1.43143679628220020145872312668726
87,1.43376676885534846371123883420611
88,1.43607006738385214983448391662965
89,1.43834729607070198219932669724916
90,1.44059903881183729403048896205266
91,1.44282586009640651860914930347059
92,1.44502830585767057571046467899555
93,1.44720690427776313862683648660843
94,1.44936216654927883638909150622199
95,1.45149458759643929176925371506350
96,1.45360464675838507353196591203532
97,1.45569280843695729929242918732795
98,1.45775952271115975104367770446389
99,1.45980522592033889322758419576569
100,1.46183034121797284280737866008768
101,1.46383527909783103664576658939203
102,1.46582043789414076677128135739709
103,1.46778620425728884050286997914534
104,1.46973295360647935769308581283105
105,1.47166105056067552359231181961502
106,1.47357084934906265159406058758928
107,1.47546269420219142816535019726915
108,1.47733691972488127271246971155290
109,1.47919385125189503159817866631325
110,1.48103380518733382540152275526490
111,1.48285708932863500731320262345414
112,1.48466400317600675692620974658687
113,1.48645483822807729788738182700084
114,1.48822987826448797011950458195942
115,1.48998939961611893882127854974224
116,1.49173367142358799080432020461989
117,1.49346295588463115571994652229856
118,1.49517750849093285862307688685233
119,1.49687757825493959660442796263742
120,1.49856340792716528998776916346736
121,1.50023523420445819134456310606844
122,1.50189328792968032244599370731658
123,1.50353779428321821634071630189710
124,1.50516897296672606193792645483443
125,1.50678703837947278221303575806931
126,1.50839219978764937985533579592035
127,1.50998466148697230629119014355864
128,1.51156462295889602282681384027437
129,1.51313227902073584941651480046312
130,1.51468781996998381469547181412582
131,1.51623143172308481679832667749159
132,1.51776329594892542728460009383744
133,1.51928359019727588890729223299039
134,1.52079248802241458200398498217181
135,1.52229015910214612594633153740220
136,1.52377676935242059455392248139989
137,1.52525248103774801643615198454881
138,1.52671745287758871923413113925230
139,1.52817184014889797083041501276926
140,1.52961579478498792462570441624796
141,1.53104946547086531849228124466572
142,1.53247299773519530374750759081190
143,1.53388653403903313032100040592748
144,1.53529021386145823465339254667426
145,1.53668417378224108910480648834640
146,1.53806854756166530290151695963100
147,1.53944346621761926168319868970468
148,1.54080905810007263467988006380042
149,1.54216544896303955047463863741776
150,1.54351276203413208223007475678632
151,1.54485111808179995663469453686332
152,1.54618063548034678573950669976554
153,1.54750143027281177138001990382408
154,1.54881361623180078142650263958804
155,1.55011730491834503385633476389811
156,1.55141260573886525501311867119805
157,1.55269962600031235865581728236267
158,1.55397847096355646390159162099554
159,1.5552492438950879248962954704895
160,1.5565120461170967097526671675648
161,1.5577669770559886248772350836980
162,1.5590141342893978457881754208942
163,1.5602536135917506077241551265688
164,1.5614855089784346926413052663384
165,1.5627099127486233128179709165019
166,1.5639269155268039066578270616012
167,1.5651366063030590790143948514217
168,1.5663390724721423749540883555041
169,1.5675343998713939490514766450737
170,1.5687226728175358733379943729905
171,1.5699039741423872783688503867050
172,1.5710783852275371940720863725959
173,1.5722459860380104927161506169096
174,1.5734068551549627775165716458006
175,1.5745610698074382018217757541080
176,1.5757087059032199252381483713656
177,1.5768498380588064672402119863858
178,1.5779845396285431126700424520859
179,1.5791128827329348140815195024229
180,1.5802349382861715373379187641363
181,1.5813507760228886990587835987328
182,1.5824604645241903913126169113016
183,1.5835640712429584428408166108742
184,1.5846616625284715583602572776659
185,1.5857533036503563440817819433899
186,1.5868390588218911880744492040898
187,1.5879189912226867959891998285047
188,1.5889931630207588184690713329771
189,1.5900616353940163013484756966087
190,1.5911244685511816097315421642175
191,1.5921817217521610485144545777083
192,1.5932334533278825615664769625352
193,1.5942797206996188134310298525064
194,1.5953205803978089943416300187900
195,1.5963560880803972809252315207406
196,1.5973862985507016445052519539966
197,1.5984112657748273823391783014607
198,1.5994310428986395337836722642712
199,1.6004456822643070152556756270499
200,1.6014552354264324142038356012920
201,1.6024597531677784185228947000643
202,1.6034592855146042575792096576142
203,1.6044538817516228095831538204957
204,1.6054435904365899902291809693516
205,1.6064284594145363879711913309839
206,1.6074085358316541646903868801681
207,1.6083838661488450924401901878800
208,1.6093544961549439477325903573199
209,1.6103204709796230062564891257813
210,1.6112818351059891336879786118596
211,1.6122386323828808316127531310623
212,1.6131909060368754657475414926114
213,1.6141386986840110544136767668006
214,1.6150820523412375930117974970935
215,1.6160210084375971207909322156997
216,1.6169556078251464844305809234687
217,1.6178858907896267575398893184432
218,1.6188118970608882885883328231245
219,1.6197336658230746502686510607869
220,1.6206512357245779984843382228901
221,1.6215646448877637433192091854905
222,1.6224739309184817294215761729480
223,1.6233791309153574867038779597685
224,1.6242802814788786107247501362907
225,1.6251774187202788293683116130672
226,1.6260705782702232938330328536695
227,1.6269597952873037368499020320784
228,1.6278451044663453084045196473795
229,1.6287265400465322411819936005093
230,1.6296041358193570320482636651814
231,1.6304779251363949289089352914325
232,1.6313479409169141319382470182550
233,1.6322142156553166947559885275951
234,1.6330767814284262716923482495148
235,1.6339356699026158823166865249315
236,1.6347909123407853920755287929638
237,1.6356425396091923292450417942122
238,1.6364905821841377692887666567933
239,1.6373350701585127222808699168909
240,1.6381760332482071768946567290761
241,1.6390135007983860823867329009658
242,1.6398475017896351246114421973148
243,1.6406780648439803269254878410445
244,1.6415052182307831643031954680584
245,1.6423289898725155638638998275384
246,1.6431494073504173104676976208691
247,1.6439664979100372392559513688985
248,1.6447802884666657957849942361949
249,1.6455908056106539323619948911338
250,1.6463980756126287248014336243535
251,1.6472021244286036091269697686418
252,1.6480029777049860362339823156053
253,1.6488006607834876162334069413636
254,1.6495951987059364088540648245100
255,1.6503866162189952394532141756305
256,1.6511749377787861255272178920316
257,1.6519601875554272045914051294556
258,1.6527423894374786076166531958694
259,1.6535215670363040810029104229995
260,1.6542977436903487429275217283829
261,1.6550709424693332872595514270432
262,1.6558411861783693599105895946432
263,1.6566084973619949576473921050983
264,1.6573728983081352996676259643982
265,1.6581344110519876966152164310850
266,1.6588930573798325842202237198062
267,1.6596488588327739342494170798845
268,1.6604018367104090759252236515671
269,1.6611520120744321971708882170169
270,1.6618994057521672492696253070177
271,1.6626440383400395383398171170965
272,1.6633859302069799826393367655195
273,1.6641251014977694782628163025428
274,1.6648615721363205817064199915763
275,1.6655953618289003843339257564643
276,1.6663264900672928565584818134813
277,1.6670549761319081452170979384415
278,1.6677808390948305782509986296879
279,1.6685040978228168793312009102334
280,1.6692247709802366854719417919512
281,1.6699428770319632566358907645998
282,1.6706584342462118737826434264345
283,1.6713714606973291379955240088349
284,1.6720819742685303274125733993055
285,1.6727899926545916194183232693792
286,1.6734955333644932030393844019805
287,1.6741986137240183410384569484082
288,1.6748992508783047836903829204976
289,1.6755974617943531825134415894249
290,1.6762932632634932367000833476019
291,1.6769866719038054134055983357200
292,1.6776777041625011270254889244186
293,1.6783663763182652834637093337614
294,1.6790527044835562265392862943929
295,1.6797367046068651739121611912799
296,1.6804183924749427283323238047774
297,1.6810977837149823961812502440571
298,1.6817748937967704303097032238781
299,1.6824497380347988002829585271667
300,1.6831223315903430408988964481354
301,1.6837926894735053906801060363231
302,1.6844608265452253135428636646546
303,1.6851267575192545770456427235537
304,1.6857904969641004650277823718432
305,1.6864520593049385534507171134892
306,1.6871114588254943129520731742397
307,1.6877687096698907203851577821534
308,1.6884238258444693580951400389301
309,1.6890768212195810905274781636927
310,1.6897277095313466536502063964058
311,1.6903765043833907524362005861892
312,1.6910232192485471798873608858315
313,1.6916678674705363507042055033356
314,1.6923104622656170542364929668266
315,1.6929510167242117467303511897470
316,1.6935895438125067588872421521859
317,1.6942260563740249577259430925142
318,1.6948605671311762143837424955071
319,1.6954930886867828198170371129746
320,1.6961236335255798500675897832618
321,1.6967522140156944004430791665759
322,1.6973788424100998034667100112751
323,1.6980035308480483450647726930494
324,1.6986262913564814565738963688179
325,1.6992471358514191449954687147080
326,1.6998660761393268991824198390567
327,1.7004831239184628931794473352859
328,1.7010982907802026763881268095294
329,1.7017115882103463258997825024686
330,1.7023230275904044931572084151799
331,1.7029326201988647840264925017268
332,1.7035403772124395340171759814246
333,1.7041463097072953577149301947920
334,1.7047504286602626569670589112426
335,1.7053527449500294032811503534820
336,1.7059532693583152530313045971497
337,1.7065520125710288682658119600637
338,1.7071489851794095025335817591526
339,1.7077441976811489168089737901961
340,1.7083376604814997174426590957280
341,1.7089293838943658303148138714018
342,1.7095193781433776089531968624133
343,1.7101076533629512150280918259616
344,1.7106942195993322655705342100226
345,1.7112790868116255668989955135875
346,1.7118622648728084107144215128351
347,1.7124437635707309984042563487724
348,1.7130235926091008059710023149595
349,1.7136017616084544352208130386156
350,1.7141782801071144942776244016828
351,1.7147531575621335957658031350395
352,1.7153264033502251557850612980980
353,1.7158980267686802788257157512879
354,1.7164680370362721438957980581434
355,1.7170364432941482579437583535393
356,1.7176032546067087872008462819363
357,1.7181684799624742063214394811668
358,1.7187321282749415101972589805721
359,1.7192942083834247344689728902168
360,1.7198547290538887235631782311978
361,1.7204136989797678920481204314681
362,1.7209711267827764618599058947860
363,1.7215270210137047719776253128635
364,1.7220813901532066855340119258445
365,1.7226342426125763317425069661355
366,1.7231855867345130613437501012362
367,1.7237354307938775086398090660479
368,1.7242837829984355499308554631267
369,1.7248306514895947920056049565599
370,1.7253760443431293049905779899845
371,1.7259199695698954540282693103815
372,1.7264624351165377874457371003607
373,1.7270034488661849493382937019103
374,1.7275430186391399262889904437302
375,1.7280811521935553210581627792962
376,1.7286178572261051107513901412832
377,1.7291531413726446800074466698971
378,1.7296870122088622979648144086860
379,1.7302194772509238801999998610744
380,1.7307505439561077938156323813290
381,1.7312802197234325825684672754052
382,1.7318085118942747316863151547242
383,1.7323354277529811485563811496592
384,1.7328609745274713245377685003212
385,1.7333851593898328007392216565475
386,1.7339079894569105980445860484990
387,1.7344294717908863623790426113148
388,1.7349496133998511637230964662136
389,1.7354684212383726252925488215639
390,1.7359859022080535737776185060623
391,1.7365020631580825294013479448466
392,1.7370169108857796460400274944893
393,1.7375304521371355768026027621810
394,1.7380426936073418481183807280197
395,1.7385536419413156012084432569418
396,1.7390633037342183538582991808777
397,1.7395716855319684144938246363634
398,1.7400787938317469588498522274102
399,1.7405846350824963372177894862026
400,1.7410892156854149144874796396735
401,1.7415925419944444942117277515324
402,1.7420946203167510742746548990498
403,1.7425954569132017573302032943263
404,1.7430950579988357115781856934285
405,1.7435934297433266498757073020688
406,1.7440905782714429388210205174373
407,1.7445865096635024572049625727762
408,1.7450812299558197097613502798369
409,1.7455747451411480601039027750132
410,1.7460670611691196002068539169119
411,1.7465581839466769193949487433240
412,1.7470481193385003584592416563096
413,1.7475368731674318310634954422093
414,1.7480244512148916394638528499408
415,1.7485108592212925717689640018282
416,1.7489961028864477137176661838164
417,1.7494801878699748268953003286746
418,1.7499631197916944601436990826564
419,1.7504449042320260762878783415007
420,1.7509255467323771798055829078175
421,1.7514050527955294014271757813510
422,1.7518834278860208251653177874343
423,1.7523606774305223979184559797441
424,1.7528368068182120394831535310330
425,1.7533118214011428365429832236179
426,1.7537857264946089318100741721727
427,1.7542585273775065973831737602364
428,1.7547302292926905105744260108631
429,1.7552008374473291492686241453898
430,1.7556703570132521737308782377334
431,1.7561387931272973034459817224385
432,1.7566061508916538435793626803965
433,1.7570724353741982041541564122916
434,1.7575376516088325152311275783914
435,1.7580018045958141672536334398858
436,1.7584648993020841831949999014755
437,1.7589269406615925896633097490611
438,1.7593879335756197749955975328272
439,1.7598478829130945217530931728497
440,1.7603067935109097911268015782949
441,1.7607646701742334255677232123080
442,1.7612215176768173399319941944748
443,1.7616773407613048556663192679239
444,1.7621321441395308044252469662814
445,1.7625859324928237390019315370494
446,1.7630387104723012833393407530800
447,1.7634904826991657984345785343419
448,1.7639412537649935901823891456562
449,1.7643910282320255077450387810988
450,1.7648398106334510931968801146487
451,1.7652876054736937940905809043880
452,1.7657344172286900890838914722577
453,1.7661802503461682787584707251666
454,1.7666251092459233398928054796930
455,1.7670689983200914766484275893622
456,1.7675119219334196755468654793708
457,1.7679538844235349700979703898651
458,1.7683948901012098214487176941315
459,1.7688349432506261397457450275882
460,1.7692740481296375996536169665457
461,1.7697122089700281111829958434754
462,1.7701494299777696706497732078697
463,1.7705857153332782076695614777440
464,1.7710210691916656015826754207307
465,1.7714554956829918489289481596008
466,1.7718889989125145259350159378521
467,1.7723215829609348402092172735122
468,1.7727532518846453013838501753564
469,1.7731840097159715019387361221397
470,1.7736138604634155477280849623823
471,1.7740428081118954207771864494569
472,1.7744708566229845878940512206144
473,1.7748980099351472224382932573744
474,1.7753242719639765601984776120656
475,1.7757496466024253296261392259112
476,1.7761741377210407882851594906239
477,1.7765977491681947171384880386388
478,1.7770204847703130678873491052047
479,1.7774423483321041725883537230156
480,1.7778633436367859306231868585288
481,1.7782834744463105450423796621659
482,1.7787027445015903989066789323035
483,1.7791211575227204741944470226821
484,1.7795387172092001563154389979909
485,1.7799554272401559251812441046067
486,1.7803712912745595424960636781695
487,1.7807863129514486097377607458943
488,1.7812004958901441198816087969245
489,1.7816138436904682584066075949438
490,1.7820263599329603450095484639576
491,1.7824380481790930795609470183581
492,1.7828489119714877107472798376656
493,1.7832589548341281336951324440636
494,1.7836681802725750429831501792622
495,1.7840765917741783670269478419922
496,1.7844841928082912629069445496626
497,1.7848909868264813930139219027011
498,1.7852969772627434658827765572936
499,1.7857021675337105769555303369471
500,1.786106561038866519526627821588
501,1.786510161160754853075909871828
502,1.786912971265192226793159254686
503,1.787314994701477470605070926381
504,1.787716234802604343277747791075
505,1.788116694885470832480197799377
506,1.788516378251090786033175030200
507,1.788915288184805773294762252732
508,1.789313427956496869449881619746
509,1.789710800820794648339179500914
510,1.790107410017293493847815654880
511,1.790503258770763519822085467875
512,1.790898350291364059815201426686
513,1.791292687774857405810362267552
514,1.791686274402823538178683890063
515,1.792079113342876289494263917311
516,1.792471207748879223502162525375
517,1.792862560761162377691497044450
518,1.793253175506741731391345486366
519,1.793643055099538260855635972187
520,1.794032202640599520942463569142
521,1.794420621218320634468392556985
522,1.794808313908669054663807584852
523,1.795195283775409630648512873469
