Eigenstate,Potential Energy
1,0.500000000099782559611820266716003949
2,0.64623093830244495453340958680847252
3,0.73633761161821392530780242195766582
4,0.79966528179931864308027644576853062
5,0.8480465821887103189995548148987532
6,0.8870660075521692892306826144458885
7,0.9197208393331049596671118475871785
8,0.9477838639112603783232583635238783
9,0.9723835802945803911283754814040429
10,0.9942802426327310469449140782666943
11,1.0140094210675378001640981391778994
12,1.0319622109042440782531105699742492
13,1.0484327422091721892186517992250398
14,1.0636477126659246269209680040610716
15,1.0777855033895929572751483406779584
16,1.090988983797218031678448541941416
17,1.103374345069304280523657024450576
18,1.115037351156025946811927756917117
19,1.126057861881209440343304270328121
20,1.136503170576273172342209485213598
21,1.146430510161927212660062368786821
22,1.155888964306915267967858708857774
23,1.164920945364540733662168931015001
24,1.173563351773089927498809464151319
25,1.181848484851759320645168497886537
26,1.189804782608243953951280768444884
27,1.197457412701313808967123622522709
28,1.204828755799854082466063087598882
29,1.211938802784817483662962095044716
30,1.218805483591049098344482509697569
31,1.225444941340005860006139174343308
32,1.231871762336493080448543064277908
33,1.238099170192892686030548965661627
34,1.244139190593811538060897859788316
35,1.250002791874883148957646858416644
36,1.255700005555977226397200611036598
37,1.261240030164986928514367184916659
38,1.266631321057944969585337791447033
39,1.271881668443371065733850665542942
40,1.276998265422932426366841558382339
41,1.281987767543748723099898554701976
42,1.286856345102680366251290015790323
43,1.291609729236452573927904665362544
44,1.296253252663373703111854109573187
45,1.300791885804836743071626797360028
46,1.305230268901656588757816384055763
47,1.309572740646819099454939137119118
48,1.313823363778631583667086740269897
49,1.317985948013601807280894871071734
50,1.32206407064424990836526684542527
51,1.32606109508159063946973294039634
52,1.32998018758367814396254745292989
53,1.33382433237915535438624726305601
54,1.33759634536718896933771426897119
55,1.34129888655169547285552153931646
56,1.34493447134768909016194800970159
57,1.34850548088038360847914864222247
58,1.35201417138288280534110825049619
59,1.35546268278554027954088799363534
60,1.35885304657904497214573147388662
61,1.36218719302372443750311820291576
62,1.36546695776925691904375812095607
63,1.36869408794174139566334035422305
64,1.37187024774876228454007713631777
65,1.37499702364755064626999595167122
66,1.37807592911649639914536314751298
67,1.38110840906600375807426756063870
68,1.38409584392092595282915152432470
69,1.38703955340350260958423507839588
70,1.38994080004279491143584783947794
71,1.39280079243401494986867580063266
72,1.39562068826884743674900697453580
73,1.39840159715580894002294410274543
74,1.40114458324787095774324489927432
75,1.40385066769294204394563893890607
76,1.40652083092135464313902759333570
77,1.40915601478319989175611900746890
78,1.41175712454718784673024559775744
79,1.41432503077166378137156567433556
80,1.41686057105747306307110644063627
81,1.41936455169151778588472376435347
82,1.42183774918908688049498200092727
83,1.42428091174235269025931431906544
84,1.42669476058180271033682270727480
85,1.42907999125681591071218725843408
86,1.43143727484107719854569182106166
87,1.43376725906806610447910979456710
88,1.43607056940143239979080081179445
89,1.43834781004468784913252968429531
90,1.44059956489430008685087478170003
91,1.44282639843995315284622828925700
92,1.44502885661545092638230928609899
93,1.44720746760347744120486578140962
94,1.44936274259718513658928179534136
95,1.45149517652136094490866211077653
96,1.45360524871571829419725342977209
97,1.45569342358267876207518815728141
98,1.45776015120183424310538681653345
99,1.45980586791312701946533916633248
100,1.46183099687063878439993209528895
101,1.46383594856875036376783524282521
102,1.46582112134230830627278154862489
103,1.46778690184232659935840431879248
104,1.46973366548864450303604479819196
105,1.47166177690086842015689551096822
106,1.47357159030883495739758712938477
107,1.47546344994375424927285631600053
108,1.47733769041111337793470817205837
109,1.47919463704635112798399668344781
110,1.48103460625425289539526545238298
111,1.48285790583294870845770677462434
112,1.48466483528334788500208367705730
113,1.48645568610478831438945751691457
114,1.48823074207762959498180195839403
115,1.48999027953347880931239836335460
116,1.49173456761368938752591317470366
117,1.49346386851674179665187308825379
118,1.49517843773507376216981772118191
119,1.49687852428189401460888259708946
120,1.49856437090848771168968748031759
121,1.50023621431248341927280031628098
122,1.50189428533753262124544424841983
123,1.50353880916482053554688325145593
124,1.50517000549680933372429020035475
125,1.50678808873358529514878203382134
126,1.50839326814216622972370176439702
127,1.50998574801910492503144640326408
128,1.51156572784670178667605878383139
129,1.51313340244312776734054445306097
130,1.51468896210674029821153688431888
131,1.51623259275485953230640681319653
132,1.51776447605725723203759996157259
133,1.51928478956459885176464555128955
134,1.52079370683206809012774834761786
135,1.52229139753838507861329068776564
136,1.52377802760042568527216040181393
137,1.52525375928363610456950930382469
138,1.52671875130842329235360763010482
139,1.52817315895269969902672977415691
140,1.52961713415074530803361611530938
141,1.53105082558854542929282980454063
142,1.53247437879575462393110487380717
143,1.53388793623442848651085736931838
144,1.53529163738465783130558457409734
145,1.53668561882723564141852414446450
146,1.53807001432347927079065020871710
147,1.53944495489232218617803215741739
148,1.54081056888479057814580104889932
149,1.54216698205596664205314118877710
150,1.54351431763454216992585963722035
151,1.54485269639005836749207251822194
152,1.54618223669792219557000056970427
153,1.54750305460228818552312966338309
154,1.54881526387688962804535909658479
155,1.55011897608389737129032621739326
156,1.55141430063088409472998379392857
157,1.55270134482596510536696802729341
158,1.55398021393118747442540875845874
159,1.5552510112142311873760201998305
160,1.5565138379984886448574283898160
161,1.5577687937115810106371899300596
162,1.5590159759323708677374009611002
163,1.5602554804365260360481448800847
164,1.5614874012406891880495891191846
165,1.5627118306453018628859746895960
166,1.5639288592761333944066848285277
167,1.5651385761245619855222512224196
168,1.5663410685866506178171059345825
169,1.5675364225010628585389044106226
170,1.5687247221858583081113004614371
171,1.5699060504742078826616232472394
172,1.5710804887490667982540126278715
173,1.5722481169768406591918248234287
174,1.5734090137400804939382323959840
175,1.5745632562692407236223975938488
176,1.5757109204735297695210667138132
177,1.5768520809708865600898085471095
178,1.5779868111171120919785821103195
179,1.5791151830341824900172331461459
180,1.5802372676377745126098078757270
181,1.5813531346640261511657024630289
182,1.5824628526955600189953482128637
183,1.5835664891867925789887618464109
184,1.5846641104885534516571637793283
185,1.5857557818720366117080787594932
186,1.5868415675521044418188740670901
187,1.5879215307099684441559863660215
188,1.5889957335152620460028728421236
189,1.5900642371475292306351350257312
190,1.5911271018171446445692400094370
191,1.5921843867856844037867510401262
192,1.5932361503857639811872013167552
193,1.5942824500403614791686560834341
194,1.5953233422816396281707597521559
195,1.5963588827692844435918068709555
196,1.5973891263083742330335915001711
197,1.5984141268667933292494260262586
198,1.5994339375922047108306731204003
199,1.6004486108285943445430839601218
200,1.6014581981324011895700996366026
201,1.6024627502882438401409554781885
202,1.6034623173242571827562434541220
203,1.6044569485270497227926569401990
204,1.6054466924562931954540887186405
205,1.6064315969589544264848026353418
206,1.6074117091831824614498556755745
207,1.6083870755918568343163195799688
208,1.6093577419758111968503106502111
209,1.6103237534667380517710541022395
210,1.6112851545497860853736856288884
211,1.6122419890758574586943685485520
212,1.6131943002736152844576758182865
213,1.6141421307612056678148616894151
214,1.6150855225577092866773231582920
215,1.6160245170943217179954320828216
216,1.6169591552252764645591270621004
217,1.6178894772385146414833938464880
218,1.6188155228661102949526717622473
219,1.6197373312944546262861863530376
220,1.6206549411742116295787046682033
221,1.6215683906300430453373169608977
222,1.6224777172701198276118587242285
223,1.6233829581954136855842885761615
224,1.6242841500087837590521247462844
225,1.6251813288238609844882285453936
226,1.6260745302737336897587292931330
227,1.6269637895194430604890669090353
228,1.6278491412582902884259216188827
229,1.6287306197319625540861745096666
230,1.6296082587344825300807648428459
231,1.6304820916199831945327571786689
232,1.6313521513103183636575002413244
233,1.6322184703025039291623288858135
234,1.6330810806760059466873650920218
235,1.6339400140998687465439757479076
236,1.6347953018396927656798022336908
237,1.6356469747644657211622320797654
238,1.6364950633532488563560383366972
239,1.6373395977017236955448203967835
240,1.6381806075286014605858933808771
241,1.6390181221818994311208781729697
242,1.6398521706450871044698912934310
243,1.6406827815431061861646095632845
244,1.6415099831482660995389629503234
245,1.6423338033860193876755949133773
246,1.6431542698406195264685526139333
247,1.6439714097606625307783977277205
248,1.6447852500645199344352806413675
249,1.6455958173456581128049270280398
250,1.6464031378778543322453712935408
251,1.6472072376203074260907641203679
252,1.6480081422226458952894471451045
253,1.6488058770298385055346933599088
254,1.6496004670870070373814682246699
255,1.6503919371441450690200582105547
256,1.6511803116607428767205040173999
257,1.6519656148103248439422306959135
258,1.6527478704848958234235879592699
259,1.6535271022993032553623682293111
260,1.6543033335955154276563776217714
261,1.6550765874468161915318895790102
262,1.6558468866619208575672830654156
263,1.6566142537890121222791470050523
264,1.6573787111197014757141910102577
265,1.6581402806929146148718055660344
266,1.6588989842987030302896365585880
267,1.6596548434819849786321947992525
268,1.6604078795462158745950171122951
269,1.6611581135569923716412725064072
270,1.6619055663455858553204053412356
271,1.6626502585124146327359388635865
272,1.6633922104304487973444562699055
273,1.6641314422485552118216447025477
274,1.6648679738947798176448961737585
275,1.6656018250795711466064485396231
276,1.6663330152989433122546923124939
277,1.6670615638375859649252597763537
278,1.6677874897719129646686402431038
279,1.6685108119730612749060878144533
280,1.6692315491098321700560770940245
281,1.6699497196515826463376820758312
282,1.6706653418710645324097208000869
283,1.6713784338472145126916591822403
284,1.6720890134678922203089859574672
285,1.6727970984325732073389455452375
286,1.6735027062549928175249417986870
287,1.6742058542657460211856770771776
288,1.6749065596148396145346186944151
289,1.6756048392742014319253329728959
290,1.6763007100401473040103081830603
291,1.6769941885358036032225522329861
292,1.6776852912134882619660006481485
293,1.6783740343570541697776420875807
294,1.6790604340841899868766380641979
295,1.6797445063486804617524259469385
296,1.6804262669426338388744170541653
297,1.6811057314986662887779417017897
298,1.6817829154920526778188056842716
299,1.6824578342428404810077288563636
300,1.6831305029179285890894252688779
301,1.6838009365331114218818551582514
302,1.6844691499550904413917986958342
303,1.6851351579034502384361545184949
304,1.6857989749526027709088527323333
305,1.6864606155337011828451746523409
306,1.6871200939365224681397930731078
307,1.6877774243113161615439737185352
308,1.6884326206706265360557150789197
309,1.6890856968910843966678319562469
310,1.6897366667151688063333591228216
311,1.6903855437529423397815095411281
312,1.6910323414837573790613611004222
313,1.6916770732579348443196053425640
314,1.6923197522984171648641672300989
315,1.6929603917023948109493153864202
316,1.6935990044429077627312126057048
317,1.6942356033704194558289445104968
318,1.6948702012143685555749479949737
319,1.6955028105846957023865208855118
320,1.6961334439733452303880542991056
321,1.6967621137557457791249404545409
322,1.6973888321922659137170175819592
323,1.6980136114296482684282802384786
324,1.6986364635024211917524478238139
325,1.6992574003342896559751183224950
326,1.6998764337395036694403658312731
327,1.7004935754242070132994780631832
328,1.7011088369877634929847006922870
329,1.7017222299240656803318593362984
330,1.7023337656228225791111205131839
331,1.7029434553708276536565443264216
332,1.7035513103532082829628506240040
333,1.7041573416546570199487547238210
334,1.7047615602606428410877442361297
335,1.7053639770586067025367983920160
336,1.7059646028391374620435834834748
337,1.7065634482971310401345994334698
338,1.7071605240329338807215092137822
339,1.7077558405534667769420699375164
340,1.7083494082733351549254107241585
341,1.7089412375159215304302089687943
342,1.7095313385144626369156226758997
343,1.7101197214131108642681176544323
344,1.7107063962679800033692067661701
345,1.7112913730481771173403575311435
346,1.7118746616368180158048797069901
347,1.7124562718320298991032742812958
348,1.7130362133479379857977053290378
349,1.7136144958156396700468801012700
350,1.7141911287841637528818519728276
351,1.7147661217214168367188297484142
352,1.7153394840151165672469197686133
353,1.7159112249737110088849828919316
354,1.7164813538272855701425598610282
355,1.7170498797284578460716145216577
356,1.7176168117532585895477265818451
357,1.7181821589020020524216074794090
358,1.7187459301001449425906263491127
359,1.7193081341991297442327095927180
360,1.7198687799772213412697642723343
361,1.7204278761403286911344875427647
362,1.7209854313228180326986020953302
363,1.7215414540883122262864808407562
364,1.7220959529304812521378794335768
365,1.7226489362738221061160063702240
366,1.7232004124744269728171406923346
367,1.7237503898207425706383250389159
368,1.7242988765343174601498180400894
369,1.7248458807705419509921537573535
370,1.7253914106193763232174239644757
371,1.7259354741060702191962841758607
372,1.7264780791918721654557150456666
373,1.7270192337747291941173565957025
374,1.7275589456899808754467701315545
375,1.7280972227110384561884522489688
376,1.7286340725500605630928797850873
377,1.7291695028586172641097201254829
378,1.7297035212283456580079572003898
379,1.7302361351915988356626034704590
380,1.7307673522220849732955872110211
381,1.7312971797354994367218328053362
382,1.7318256250901470184773889945520
383,1.7323526955875589862939115638542
384,1.7328783984730999105263717435506
385,1.7334027409365678957891564811407
386,1.7339257301127888795611942861190
387,1.7344473730822007513167673124157
388,1.7349676768714312332990950934796
389,1.7354866484538702020691658675188
390,1.7360042947502336444873346407141
391,1.7365206226291195697490780195689
392,1.7370356389075594906490708772026
393,1.7375493503515629524982697392513
394,1.7380617636766536958412020100445
395,1.7385728855484003150559194513830
396,1.7390827225829410690363839091581
397,1.7395912813475024793503925826369
398,1.7400985683609117296408243509307
399,1.7406045900941014378503914265573
400,1.7411093529706111071673006508789
401,1.7416128633670813107303881259767
402,1.7421151276137413615791405816073
403,1.7426161519948932950478276256417
404,1.7431159427493900633201545262799
405,1.7436145060711054144137653016764
406,1.7441118481094015716318199162986
407,1.7446079749695918374107077799309
408,1.7451028927133956321673007258669
409,1.7455966073593888368392305079154
410,1.7460891248834519614413054340120
411,1.7465804512192104077042924177033
412,1.7470705922584704166863338620495
413,1.7475595538516517889415655955060
414,1.7480473418082138098718353630724
415,1.7485339618970786732480416075487
416,1.7490194198470488418332600473630
417,1.7495037213472212031583698782922
418,1.7499868720473951935268120708593
419,1.7504688775584791789039964654405
420,1.7509497434528900850366838504508
421,1.7514294752649502397386168358186
422,1.7519080784912807200040312110456
423,1.7523855585911890514820270869563
424,1.7528619209870548857740263084685
425,1.7533371710647100470010081079313
426,1.7538113141738165669348935043818
427,1.7542843556282402061536046581043
428,1.7547563007064194881328593986315
429,1.7552271546517341722837998762513
430,1.7556969226728660420877855925308
431,1.7561656099441595264580448406885
432,1.7566332216059793187699691747031
433,1.7570997627650603468394610815078
434,1.7575652384948612076580797266031
435,1.7580296538359089069203645980833
436,1.7584930137961428212134368411644
437,1.7589553233512560616492686810918
438,1.7594165874450332389663255811615
439,1.7598768109896853299397945407637
440,1.7603359988661827354402582205513
441,1.7607941559245837097335733581809
442,1.7612512869843617450445897648644
443,1.7617073968347315801200021853086
444,1.7621624902349684738760165630658
445,1.7626165719147300972168562544372
446,1.7630696465743720905443710233445
447,1.7635217188852644800441824050864
448,1.7639727934901021956718908906407
449,1.7644228750032175568837194870912
450,1.7648719680108869049301198967619
451,1.7653200770716389120950120785145
452,1.7657672067165574374064581278717
453,1.7662133614495847010398905861803
454,1.7666585457478211964903081597469
455,1.7671027640618259955492848489778
456,1.7675460208159127753045700272765
457,1.7679883204084462962074963917553
458,1.7684296672121357615896847896386
459,1.7688700655743276082358650154563
460,1.7693095198172974072808051963880
461,1.7697480342385387633734965871304
462,1.7701856131110524647238469539087
463,1.7706222606836345287703214288803
464,1.7710579811811613467826416386187
465,1.7714927788048759400653947468941
466,1.7719266577326725039754160312167
467,1.7723596221193785673970084093408
468,1.7727916760970398321722824143985
469,1.7732228237752002198098408210801
470,1.7736530692411847024777119723309
471,1.7740824165603792397925232457576
472,1.7745108697765121754179802397628
473,1.7749384329119325028729835363003
474,1.7753651099678925652091478102879
475,1.7757909049248241742603255975195
476,1.7762158217426207285794665958325
477,1.7766398643609157308253265792642
478,1.7770630366993624509543426831540
479,1.7774853426579136976139012112366
480,1.7779067861171021681725212796779
481,1.7783273709383200070053770189719
482,1.7787471009641012226390342189120
483,1.7791659800184024287418444676420
484,1.7795840119068848170314315246132
485,1.7800012004171989307745328683389
486,1.7804175493192669190918919740771
487,1.7808330623655692200662831993299
488,1.7812477432914303723144408895611
489,1.7816615958153072904568679021832
490,1.7820746236390779791735113654934
491,1.7824868304483329362360143496340
492,1.7828982199126679535584586995963
493,1.7833087956859784170689943665122
494,1.7837185614067563304453394848282
495,1.7841275206983883916369098809998
496,1.7845356771694585087258213920880
497,1.7849430344140505887233779522573
498,1.7853495960120556988883398867960
499,1.7857553655294812587663250478603
500,1.786160346518764561151788344520
501,1.786564542519086542917114001485
502,1.786967957056693443335815140861
503,1.787370593645218008378888610211
504,1.787772455786008283494506977330
505,1.788173546968457049704319151708
506,1.788573870670337849642171635199
507,1.788973430358145677704835223473
508,1.789372229487442210497875698325
509,1.789770271503204055335620319605
510,1.790167559840180328003260942788
511,1.790564097923253060608046842195
512,1.790959889167804621746600999765
513,1.791354936980091059779956740930
514,1.791749244757622354351739488213
515,1.792142815889550273518506566073
516,1.792535653757062385073404558767
517,1.792927761733783651006293821660
518,1.793319143186187761454469936738
519,1.793709801474015378829583424075
520,1.794099739950702556432226208977
521,1.794488961963816553898132565496
522,1.794877470855503773450084509708
523,1.795265269962946723880600876279
