Eigenstate,Potential Energy
1,0.500000000037195587548510963268492000
2,0.64623093789390799889127733279611346
3,0.73633761041816128942615353387230002
4,0.79966527929972236270564641494591948
5,0.8480465778588458135287829485359366
6,0.8870660008519905505497166930387194
7,0.9197208297181680657771931363694883
8,0.9477838508347725333469376105336991
9,0.9723835632083488083883769657112112
10,0.9942802209876409338595669692395057
11,1.0140093943138086609978401457208155
12,1.0319621784915730462605675958046762
13,1.0484327035868158523955089706211235
14,1.0636476672827454519067784121458502
15,1.0777854506940843511031091617040153
16,1.090988923237515979909147045554252
17,1.103374276093190248447047614994409
18,1.115037273210923916332220110769348
19,1.126057774414178902017412843161187
20,1.136503073033999258813238021315849
21,1.146430401990708766957006427924114
22,1.155888844952651389672170431040533
23,1.164920814272716182196324154087139
24,1.173563208388759652318557806229258
25,1.181848328619532313428311775198828
26,1.189804612972266565970977457785206
27,1.197457229105252640154170087136789
28,1.204828557686878522335829417732763
29,1.211938589597581965115929829616606
30,1.218805254771675111212774445010022
31,1.225444696330063760664930104112313
32,1.231871500576983725843733197806581
33,1.238098891124228914395669819732431
34,1.244138893655799513913633242976457
35,1.250002476506703586325915035493459
36,1.255699671196166501370331814808933
37,1.261239676251418089958501523641581
38,1.266630947027808655065141988689857
39,1.271881273733156328240945656678182
40,1.276997849468407476290861205532915
41,1.281987329779941588931516459793263
42,1.286855884963859476732137317134081
43,1.291609246156107263725026555645101
44,1.296252746074194643567063299138312
45,1.300791355138696299137215693109750
46,1.305229713589589102862819932842136
47,1.309572160119001102737480702258793
48,1.313822757464361934747127671108587
49,1.317985315341281758525972674219144
50,1.32206341104136309941251890008821
51,1.32606040797468301760483209959369
52,1.32997947239833781081616642052494
53,1.33382358853999233828724340755093
54,1.33759557229781492255639419616397
55,1.34129808367470329287782455959277
56,1.34493363808463246405391375797414
57,1.34850461665175647932910888655213
58,1.35201327560809875970275327014857
59,1.35546175488291185474342867718060
60,1.35885208596576288228573690641134
61,1.36218619911583671688620174591285
62,1.36546592998164798180193460584796
63,1.36869302568811101023538565521246
64,1.37186915044160446166671791320541
65,1.37499589069813243912278825916711
66,1.37807475993483661417778657961740
67,1.38110720306085157515495210089481
68,1.38409460049973945319039110158016
69,1.38703827197242721009338641503396
70,1.38993948000664170367351426400494
71,1.39279943319623894247407596651441
72,1.39561928923152569947130777668269
73,1.39840015771961864789564045430303
74,1.40114310281206733377834614192260
75,1.40384914565533619872406614842538
76,1.40651926667829130965435462877497
77,1.40915440772953505384936487248204
78,1.41175547407626625943455961189798
79,1.41432333627529638146708750409835
80,1.41685883192591426813196404511692
81,1.41936276731344268008165282143454
82,1.42183591895156828539903023241192
83,1.42427903503083811887406089221947
84,1.42669283678009120256836473763102
85,1.42907801974703474846814657039691
86,1.43143525500365849863656783883279
87,1.43376519028172328747686553212553
88,1.43606845104313653298166141274197
89,1.43834564148964386168247427330715
90,1.44059734551592285528412400122895
91,1.44282412760984345491802223670556
92,1.44502653370337126140916724836515
93,1.44720509197732771489604215314202
94,1.44936031362297820840449969865000
95,1.45149269356319803594767979089348
96,1.45360271113576425360755099729417
97,1.45569083074113718994413556060751
98,1.45775750245692246778361816520210
99,1.45980316262105092724758007286187
100,1.46182823438556749946936290574192
101,1.46383312824279077628920775864100
102,1.46581824252547944649865595420188
103,1.46778396388253385559180567369109
104,1.46973066773165368127076619272251
105,1.47165871869027964319547030335678
106,1.47356847098605640122455809920061
107,1.47546026884797571443849650982237
108,1.47733444687927969368170885776494
109,1.47919133041313538682645016579813
110,1.48103123585202951583593968330008
111,1.48285447099176632350587174400623
112,1.48466133533090205412993241044605
113,1.48645212036639405654080262202897
114,1.48822710987619374022191155246977
115,1.48998658018947216668256548618597
116,1.49173080044511872664087279072615
117,1.49346003283912164055211800591923
118,1.49517453286139798891477353110972
119,1.49687454952260726506981102629876
120,1.49856032557145660097439282483192
121,1.50023209770296754918634822762419
122,1.50189009675815539116341776167377
123,1.50353454791553974904912662981931
124,1.50516567087488759830841110095106
125,1.50678368003356021231322135576065
126,1.50838878465582037268063601448281
127,1.50998118903543560127964525543183
128,1.51156109265189058263296275262529
129,1.51312869032050987220205572672482
130,1.51468417233677360417632634381087
131,1.51622772461509350826933010999042
132,1.51775952882230156782431284466547
133,1.51927976250609186994693180221362
134,1.52078859921864492242473914477943
135,1.52228620863564560385023924214872
136,1.52377275667090222583385493132833
137,1.52524840558676087824996553346798
138,1.52671331410049561646814648395955
139,1.52816763748685294361653947327814
140,1.52961152767691359495571547087794
141,1.53104513335343007395158163881094
142,1.53246860004279031636891149385248
143,1.53388207020374920853756487755385
144,1.53528568331306250630680819006007
145,1.53667957594815351344367998592658
146,1.53806388186693500948087013694459
147,1.53943873208490071405320979253544
148,1.54080425494960161672877088521057
149,1.54216057621260897326626712686044
150,1.54350781909906760915321489054274
151,1.54484610437493544465565324043937
152,1.54617555041199954052543127098963
153,1.54749627325075761403467140769421
154,1.54880838666124892455468923073212
155,1.55011200220191276464722330624165
156,1.55140722927655242300573659151279
157,1.55269417518947566582415651439475
158,1.55397294519888355466852548854723
159,1.5552436425685712736586457105630
160,1.5565063686180073034712432252127
161,1.5577612227708494382574655363225
162,1.5590083026019571065479606421623
163,1.5602477038829548494165309601961
164,1.5614795206264015924694252167223
165,1.5627038451286143118497424020263
166,1.5639207680111966098173809045875
167,1.5651303782613194321961120364738
168,1.5663327632707966165731747231812
169,1.5675280088740003333137027963980
170,1.5687161993846561624779495977720
171,1.5698974176315580010737562529731
172,1.5710717449932406672743214925265
173,1.5722392614316456039038868666859
174,1.5734000455248155246773669474952
175,1.5745541744986519880988688901812
176,1.5757017242577656053439105265872
177,1.5768427694154521426347672672900
178,1.5779773833228236724770994697099
179,1.5791056380971212186757360752001
180,1.5802276046492398415003845104862
181,1.5813433527104888115594627781924
182,1.5824529508586145677393414249728
183,1.5835564665431095084548612237291
184,1.5846539661098308577191033190273
185,1.5857455148249514141275785607278
186,1.5868311768982631513478205561718
187,1.5879110155058574705837361480336
188,1.5889850928121975413005297805481
189,1.5900534699916064612694798810813
190,1.5911162072491868869786994014406
191,1.5921733638411913569296675378005
192,1.5932249980948596899899693185539
193,1.5942711674277417626170646784943
194,1.5953119283665190057018383955574
195,1.5963473365653425533564128956691
196,1.5973774468237017355112754289273
197,1.5984023131038372896074562721835
198,1.5994219885477134533271124320990
199,1.6004365254935617721808332079638
200,1.6014459754920105621148328444635
201,1.6024503893218110035193882128951
202,1.6034498170051732427526116120026
203,1.6044443078227231558638419329414
204,1.6054339103280913893810556439140
205,1.6064186723621446434766186036154
206,1.6073986410668722162113523448777
207,1.6083738628989336794847040185146
208,1.6093443836428819080986332798268
209,1.6103102484240672047654412681464
210,1.6112715017212340166613632926163
211,1.6122281873788176024851271697643
212,1.6131803486189508771463676545419
213,1.6141280280531858119748893174687
214,1.6150712676939443661370007219773
215,1.6160101089656981554865567436750
216,1.6169445927158908133043742041228
217,1.6178747592256070019641638449529
218,1.6188006482199970479710972603405
219,1.6197222988784604733048381002901
220,1.6206397498446009311907581667071
221,1.6215530392359504485850266356156
222,1.6224622046534801727347852240699
223,1.6233672831908911826403107827024
224,1.6242683114437004247128868280894
225,1.6251653255181243291667743346269
226,1.6260583610397636450812006724098
227,1.6269474531620981369747015382314
228,1.6278326365747929530863275674800
229,1.6287139455118238175026146834226
230,1.6295914137594257323621395836723
231,1.6304650746638669793955140600838
232,1.6313349611390588297091205944578
233,1.6322011056739959473041679424603
234,1.6330635403400436323843162285234
235,1.6339222967980650755387948386710
236,1.6347774063053983215563803357839
237,1.6356288997226865629838612485888
238,1.6364768075205634944265313496404
239,1.6373211597861991631565088763373
240,1.6381619862297084694320910395387
241,1.6389993161904265978611784522855
242,1.6398331786430542357439076377706
243,1.6406636022036766091523969498582
244,1.6414906151356580249672159561226
245,1.6423142453554162919655444717959
246,1.6431345204380795395121916055869
247,1.6439514676230268156219840669294
248,1.6447651138193200449315573335224
249,1.6455754856110223150783863068490
250,1.6463826092624128755916736955211
251,1.6471865107230967487043857129574
252,1.6479872156330117499849461680720
253,1.6487847493273379903893296294892
254,1.6495791368413095159891713125713
255,1.6503704029149319648030274559931
256,1.6511585719976063254961611624551
257,1.6519436682526651886911174914149
258,1.6527257155618179349459352633968
259,1.6535047375295116622490851049107
260,1.6542807574872082387336037204686
261,1.6550537984975777936661196109442
262,1.6558238833586133714408462804845
263,1.6565910346076655984640396269100
264,1.6573552745254028130851480134213
265,1.6581166251396951831053426940717
266,1.6588751082294249778994440818310
267,1.6596307453282262076860603934862
268,1.6603835577281536629489503084910
269,1.6611335664832856232112910356282
270,1.6618807924132559585910966172800
271,1.6626252561067249073770138891192
272,1.6633669779247825084722615282674
273,1.6641059780042921311040380323204
274,1.6648422762611713100990960570281
275,1.6655758923936137615880824349871
276,1.6663068458852508567740905633623
277,1.6670351560082600370622311994410
278,1.6677608418264119244809850960552
279,1.6684839221980676298468294761636
280,1.6692044157791183515248315226424
281,1.6699223410258751535956823113573
282,1.6706377161979064196840820401305
283,1.6713505593608261948823268674793
284,1.6720608883890305722911267036395
285,1.6727687209683889314262253121722
286,1.6734740745988860532225242136586
287,1.6741769665972201709148641603296
288,1.6748774140993533585587684444362
289,1.6755754340630189052427475096122
290,1.6762710432701864075072712316023
291,1.6769642583294824208983036456963
292,1.6776550956785695555496648904500
293,1.6783435715864879215565483762963
294,1.6790297021559539610430406265963
295,1.6797135033256187540559068300482
296,1.6803949908722933838332907265767
297,1.6810741804131312931608001838254
298,1.6817510874077769485547623944252
299,1.6824257271604776151159171754145
300,1.6830981148221599926454986171775
301,1.6837682653924721244468720056627
302,1.6844361937217926717316558750056
303,1.6851019145132047267450347795153
304,1.6857654423244377421257750093994
305,1.6864267915697790050134830780857
306,1.6870859765219539191090244053186
307,1.6877430113139722766479101186685
308,1.6883979099409479987214251743396
309,1.6890506862618884332176662665762
310,1.6897013540014535455350723346062
311,1.6903499267516885969783861235300
312,1.6909964179737278239762065507284
313,1.6916408409994705108757068206342
314,1.6922832090332312605955839817951
315,1.6929235351533637827869921526252
316,1.6935618323138595751523192191666
317,1.6941981133459190365337422041983
318,1.6948323909595003630244341215409
319,1.6954646777448433686722692014751
320,1.6960949861739682320417366764625
321,1.6967233286021530875767177117473
322,1.6973497172693865762032297572002
323,1.6979741643017988692192581257880
324,1.6985966817130701426201431895184
325,1.6992172814058182638486909564487
326,1.6998359751729639282053897406219
327,1.7004527746990760656830689892506
328,1.7010676915616947074293837446683
329,1.7016807372326362867051308097581
330,1.7022919230792778060130291059605
331,1.7029012603658213089833293310027
332,1.7035087602545397182489209508343
333,1.7041144338070044178575617196295
334,1.7047182919852927642365945347499
335,1.7053203456531798406345728914089
336,1.7059206055773105130834267481881
337,1.7065190824283546601197371920312
338,1.7071157867821466351093133849414
339,1.7077107291208050256743702972469
340,1.7083039198338388015566732258516
341,1.7088953692192355644872685232159
342,1.7094850874845343972044023412941
343,1.7100730847478829494027943560465
344,1.7106593710390787543143779646295
345,1.7112439563005965952480739101449
346,1.7118268503885993968774211575595
347,1.7124080630739362066283346869660
348,1.7129876040431240778854378292337
349,1.7135654828993173999350549951589
350,1.7141417091632622169811560048430
351,1.7147162922742376238319861963305
352,1.7152892415909839206177568040755
353,1.7158605663926168109138027958886
354,1.7164302758795290577408840119477
355,1.7169983791742799627228567655745
356,1.7175648853224708781873077107418
357,1.7181298032936099912511753281369
358,1.7186931419819656238953314137037
359,1.7192549102074037941720838870494
360,1.7198151167162189764689076357468
361,1.7203737701819498057022747847477
362,1.7209308792061862070482311554867
363,1.7214864523193625468280870810190
364,1.7220404979815418285504810554823
365,1.7225930245831891704839915358257
366,1.7231440404459334424379980120046
367,1.7236935538233199537699930700893
368,1.7242415729015509813584311548179
369,1.7247881058002187700948631962584
370,1.7253331605730267190816972474618
371,1.7258767452085016068545731718338
372,1.7264188676306958121202856323040
373,1.7269595356998794967372768759937
374,1.7274987572132270594300091426821
375,1.7280365399054885518198208213733
376,1.7285728914496575130000720091701
377,1.7291078194576270118804964360720
378,1.7296413314808370647246785135389
379,1.7301734350109152676964544950585
380,1.7307041374803074011950036555529
381,1.7312334462629008814276902754185
382,1.7317613686746381774066057984657
383,1.7322879119741248680442428924313
384,1.7328130833632273030654923844177
385,1.7333368899876634890052497820739
386,1.7338593389375878589599722688281
387,1.7343804372481656754447959615013
388,1.7349001919001410031695200249025
389,1.7354186098203989264331693002979
390,1.7359356978825192002585605108786
391,1.7364514629073216522202946208817
392,1.7369659116634069433579939882227
393,1.7374790508676901616743386696686
394,1.7379908871859258293291009818338
395,1.7385014272332271804152865929033
396,1.7390106775745793601991807259354
397,1.7395186447253461757462340238976
398,1.7400253351517704060813529181385
399,1.7405307552714662376895945436933
400,1.7410349114539081253295563806484
401,1.7415378100209121270942885368876
402,1.7420394572471104589515911111590
403,1.7425398593604220895192553406805
404,1.7430390225425172681812936885941
405,1.7435369529292734520065278384488
406,1.7440336566112287405215679174832
407,1.7445291396340299350749347408146
408,1.7450234079988727260048849788927
409,1.7455164676629368687054498764106
410,1.7460083245398188630881473164602
411,1.7464989844999563964766541663444
412,1.7469884533710481325425327623844
413,1.7474767369384699253628869238553
414,1.7479638409456838824654388596814
415,1.7484497710946445608450020951792
416,1.7489345330461987256061000810122
417,1.7494181324204815197407191882137
418,1.7499005747973062083009679699560
419,1.7503818657165517755013253291770
420,1.7508620106785433566968537182847
421,1.7513410151444294574454424346265
422,1.7518188845365552412824228326133
423,1.7522956242388297223727445704557
424,1.7527712395970904767924288399691
425,1.7532457359194622518252664702050
426,1.7537191184767130801430279186532
427,1.7541913925026053835254717380928
428,1.7546625631942420798369665255385
429,1.7551326357124116056748983220021
430,1.7556016151819247168251345407466
431,1.7560695066919505702069021104799
432,1.7565363152963492368520325195351
433,1.7570020460139959838447822140392
434,1.7574667038291084231899252335603
435,1.7579302936915643513141071320322
436,1.7583928205172181802216951492033
437,1.7588542891882141217066155997550
438,1.7593147045532951067159689893272
439,1.7597740714281081212025068019143
440,1.7602323945955070297113951489549
441,1.7606896788058500465886874583737
442,1.7611459287772954184907029637505
443,1.7616011491960949659231084619132
444,1.7620553447168801032172738978667
445,1.7625085199629496676362129448797
446,1.7629606795265505819949756397121
447,1.7634118279691585200014664226251
448,1.7638619698217517925545401340086
449,1.7643111095850862955423695735147
450,1.7647592517299636716186909192406
451,1.7652064006975001890911334121986
452,1.7656525608993891793081784938266
453,1.7660977367181627756566110686943
454,1.7665419325074493431581368416199
455,1.7669851525922302225795442066107
456,1.7674274012690910860962113807559
457,1.7678686828064726002594914396403
458,1.7683090014449167922072043147217
459,1.7687483613973116330866338648778
460,1.7691867668491334810769768106578
461,1.7696242219586852337839061894911
462,1.7700607308573334031009615313358
463,1.7704962976497427163575648972181
464,1.7709309264141064047084379049099
465,1.7713646212023761475482896129911
466,1.7717973860404888037005336085615
467,1.7722292249285892099465150612137
468,1.7726601418412540625885972875969
469,1.7730901407277093587998460248486
470,1.7735192255120489223514612170291
471,1.7739474000934482808852825437626
472,1.7743746683463781923959954265830
473,1.7748010341208131718858738705381
474,1.7752265012424425222437693235406
475,1.7756510735128727921643003361923
476,1.7760747547098341749721788804273
477,1.7764975485873811814126490882822
478,1.7769194588760922624590052028503
479,1.7773404892832672715848364359294
480,1.7777606434931231611495737837348
481,1.7781799251669864638370736152641
482,1.7785983379434861280037619411798
483,1.7790158854387420870002983397594
484,1.7794325712465523822931828219239
485,1.7798483989385803173323580292323
486,1.7802633720645362270302918934446
487,1.7806774941523607117083054358585
488,1.7810907687084039320704606377366
489,1.7815031992176041933810005763186
490,1.7819147891436636819658444986113
491,1.7823255419292234883162093621055
492,1.7827354609960365049776059841580
493,1.7831445497451381742285305218356
494,1.7835528115570161795834744418254
495,1.7839602497917772736123101717630
496,1.7843668677893144864924787947259
497,1.7847726688694704008110555861572
498,1.7851776563322004378643578180496
499,1.7855818334577336527727945814710
500,1.785985203506733168877979108204
501,1.786387769720451997429648025165
502,1.786789535320891697708750226194
503,1.787190503510955345679832917243
504,1.787590677474602654976206613870
505,1.787990060377000097646198869813
506,1.788388655364671754712214252024
507,1.788786465565648744531780150029
508,1.789183494089616868880626787215
509,1.789579744028060707609986492385
510,1.789975218454410215073743181465
511,1.790369920424183049362544339406
512,1.790763852975126534505342566795
513,1.791157019127357871336027956619
514,1.791549421883503273460309688349
515,1.791941064228836402587288518705
516,1.792331949131414313593307007674
517,1.792722079542211984085418793479
518,1.793111458395257213884247855699
519,1.793500088607762676409744530999
520,1.793887973080257979014565478096
521,1.794275114696718527541804161372
522,1.794661516324695471357354707307
523,1.795047180815443166070323363349
