Eigenstate,Potential Energy
1,0.500000000069095136634726469807460809
2,0.64623093810213225840231002367756455
3,0.73633761102980611032064335761784940
4,0.79966528057371684651316042641269480
5,0.8480465800656829811125170106766945
6,0.8870660042669087916822739164219386
7,0.9197208346186402667711329385050659
8,0.9477838574994602748173757994455997
9,0.9723835719166172931148979449129670
10,0.9942802320193139218943730718356624
11,1.0140094079490363906384307314437344
12,1.0319621950107577323001760557277603
13,1.0484327232705685310576797513893078
14,1.0636476904118608672577101663085464
15,1.0777854775495267269784253940694936
16,1.090988954100411631042869144968367
17,1.103374311244824641900144927254171
18,1.115037312932741718914956741741327
19,1.126057818987786086166436055812646
20,1.136503122741166662128146477907297
21,1.146430457113376700787507388084569
22,1.155888905772935019805830315661946
23,1.164920881072911488153733238377490
24,1.173563281451349827558161222383275
25,1.181848408227194506829551017851113
26,1.189804699407878891418238084738364
27,1.197457322651901399739909821074661
28,1.204828658627865602119491437474805
29,1.211938698216432372143126895268210
30,1.218805371352144627703329428612381
31,1.225444821156146696656225089445561
32,1.231871633932920755635632677146790
33,1.238099033294514985240258671641671
34,1.244139044925191817778516849680300
35,1.250002637160229587414163831012869
36,1.255699841519132013533825202995654
37,1.261239856529415399290290534029427
38,1.266631137546724683871140895109005
39,1.271881474779180837324814854536617
40,1.276998061328041303078177709055955
41,1.281987552740004919440460248871776
42,1.286856119311500149791271030931481
43,1.291609492178809106162173669610660
44,1.296253004059785835360603301596158
45,1.300791625375357767743353733192679
46,1.305229996365862946118076864802728
47,1.309572455723799039891440505569512
48,1.313823066186973785312023355266400
49,1.317985637471383948741077917323880
50,1.32206374686902719621617512996534
51,1.32606075779038429008809579274965
52,1.32997983649296381920172895400473
53,1.33382396720485155053734491059840
54,1.33759596582464535876560881199373
55,1.34129849235568119765185407644251
56,1.34493406221238100711514594869247
57,1.34850505651935448462441870398448
58,1.35201373150908946331977731829239
59,1.35546222711131169196851641876926
60,1.35885257481607030416102767674055
61,1.36218670488304103664478515403133
62,1.36546645296123825157944162140916
63,1.36869356617608492847377925094654
64,1.37186970873447731164183289487714
65,1.37499646709294605904168286241671
66,1.37807535472916839930503377652926
67,1.38110781655282351243914877013328
68,1.38409523298802718887336246043979
69,1.38703892375626915079502792363626
70,1.38994015138584815145472078355998
71,1.39280012447120126438958747275115
72,1.39562000070322553213260061329172
73,1.39840088968963713757232491578698
74,1.40114385558259441257412666681024
75,1.40384991952917989737081682136800
76,1.40652006195888710747477337859879
77,1.40915522472095526644569603696781
78,1.41175631308322946466734471157626
79,1.41432419760317688429442893404074
80,1.41685971588075160488587614224015
81,1.41936367420195116276437871126923
82,1.42183684908114658658809848416692
83,1.42427998870957889783076059295298
84,1.42669381431679077315015817525456
85,1.42907902145120278945134694383885
86,1.43143628118552780706120712338891
87,1.43376624125225957563145458430542
88,1.43606952711404826965117346518779
89,1.43834674297339215828845707350804
90,1.44059847272573139755148169272802
91,1.44282528085970848070873421669400
92,1.44502771330807158536866808398759
93,1.44720629825243480056380182582783
94,1.44936154688486628844587955865794
95,1.45149395412905428116998116572516
96,1.45360399932359899142869430730567
97,1.45569214686979417298842061186416
98,1.45775884684608919328461131148221
99,1.45980453559126900794418331978854
100,1.46182963625824308668693363323368
101,1.46383455934020503590362642436614
102,1.46581970317079908848719164813300
103,1.46778545439982171788061852013122
104,1.46973218844587936859538071564346
105,1.47166026992733022169631259100421
106,1.47357005307274714950627207599666
107,1.47546188211206093182782125935101
108,1.47733609164946356642538979300311
109,1.47919300701908291297692261352048
110,1.48103294462437748957929011632500
111,1.48285621226213437969308012382815
112,1.48466310943190377377921490844023
113,1.48645392763164813408573619088356
114,1.48822895064033521328681656676448
115,1.48998845478816370917371250562910
116,1.49173270921506200594915005428469
117,1.49346197611806873967001848805583
118,1.49517651098816289427768300394261
119,1.49687656283707742093913023489836
120,1.49856237441460453118741963535536
121,1.50023418241686254710541706228727
122,1.50189221768597527866445451440918
123,1.50353670540158270539756562663680
124,1.50516786526458405977827595373740
125,1.50678591167348484341327349928047
126,1.50839105389370410985934959169512
127,1.50998349622017776998918589742334
128,1.51156343813357108864062518635760
129,1.51313107445040146804594633927977
130,1.51468659546735423167069975200003
131,1.51623018710005871797358170300918
132,1.51776203101657701639866215520810
133,1.51928230476584589632618512659224
134,1.52079118190130120375119816335854
135,1.52228883209989589211546667210541
136,1.52377542127671916618855223263118
137,1.52525111169541090995044336946279
138,1.52671606207455195743755364578299
139,1.52817042769020865960864351573451
140,1.52961436047479475431868032208663
141,1.53104800911240898899924785020495
142,1.53247151913079887237717186590610
143,1.53388503299009228139347633070279
144,1.53528869016843146984866459081762
145,1.53668262724463983754050134279412
146,1.53806697797804394991058043307167
147,1.53944187338556509524949515639945
148,1.54080744181619570847747083046773
149,1.54216380902296246244345227731875
150,1.54351109823247966760788274667016
151,1.54484943021218889435206339070521
152,1.54617892333537511707095765038718
153,1.54749969364404832973112563176149
154,1.54881185490977453212289826776282
155,1.55011551869253432278653104427768
156,1.55141079439768696496263287086742
157,1.55269778933111097215615741859790
158,1.55397660875259303140231837227414
159,1.5552473559275289370539956003178
160,1.5565101321770028726153481074940
161,1.5577650369263035367271967903574
162,1.5590121677519365743908611999419
163,1.5602516204271881667147726038783
164,1.5614834889662944157647436392955
165,1.5627078656672651247209945380059
166,1.5639248411534124889164554669943
167,1.5651345044136319300620360796038
168,1.5663369428414777625588816138398
169,1.5675322422730787539742276381531
170,1.5687204870239333227839503368607
171,1.5699017599246245678289733744145
172,1.5710761423554929961310435882446
173,1.5722437142803023513857579867069
174,1.5734045542789343866345626861712
175,1.5745587395791465660366621497366
176,1.5757063460874224020816209405589
177,1.5768474484189476887684405754205
178,1.5779821199267417851357748286349
179,1.5791104327299703940779800101701
180,1.5802324577414707828348714447148
181,1.5813482646945120937304547533406
182,1.5824579221688184405355396372184
183,1.5835614976158778397178773315667
184,1.5846590573835612181056719239611
185,1.5857506667400733050781242655408
186,1.5868363898972563778920883598186
187,1.5879162900332706606334039815634
188,1.5889904293146668130975017569057
189,1.5900588689178742406780497757779
190,1.5911216690501208763289564160186
191,1.5921788889698036571399897219518
192,1.5932305870063260777161997709999
193,1.5942768205794211241962684428062
194,1.5953176462179729296795297311985
195,1.5963531195783550834073026922328
196,1.5973832954622992855842925372135
197,1.5984082278343087231481402558694
198,1.5994279698386303284517757472311
199,1.6004425738157987546997591447768
200,1.6014520913187660083236585629537
201,1.6024565731286277147012055153707
202,1.6034560692699593933563940366713
203,1.6044506290257733973484055020442
204,1.6054403009521081317372658756693
205,1.6064251328922595164655774896953
206,1.6074051719906677123797527620117
207,1.6083804647064649810450073654062
208,1.6093510568266988997851237856570
209,1.6103169934792366748049160626339
210,1.6112783191453620480213863087431
211,1.6122350776720721565904482779949
212,1.6131873122840845722804739569314
213,1.6141350655955588986108464404904
214,1.6150783796215479014690525465798
215,1.6160172957891773794627365210850
216,1.6169518549485687284879402409578
217,1.6178820973835081595809813551101
218,1.6188080628218715425287120283857
219,1.6197297904458081481998945895454
220,1.6206473189016957977500214754280
221,1.6215606863098653210167603332084
222,1.6224699302741115214981663980065
223,1.6233750878909842087714344897698
224,1.6242761957588743576785670617624
225,1.6251732899868979508490776249355
226,1.6260664062035810425293951574330
227,1.6269555795653546865931335225311
228,1.6278408447648615389625236480326
229,1.6287222360390812866128616248091
230,1.6295997871772795894269470913318
231,1.6304735315287823241932868052371
232,1.6313435020105855396913980088297
233,1.6322097311147961083932876952044
234,1.6330722509159192208705059813326
235,1.6339310930779858940315111998888
236,1.6347862888615301919832068370054
237,1.6356378691304197796682337670247
238,1.6364858643585415403156665103567
239,1.6373303046363476923101295001258
240,1.6381712196772645589234315714664
241,1.6390086388239682722827341930427
242,1.6398425910545302675517466585321
243,1.6406731049884365981261166276339
244,1.6415002088924827601044043807121
245,1.6423239306865483991743191250678
246,1.6431442979492544185092370136159
247,1.6439613379235038694884641505202
248,1.6447750775219142058249887882799
249,1.6455855433321358696452106076602
250,1.6463927616220675936718764224650
251,1.6471967583449663189683368912047
252,1.6479975591444545261896562050757
253,1.6487951893594300519919385481598
254,1.6495896740288780469051676232201
255,1.6503810378965889541474200880078
256,1.6511693054157825941975212518604
257,1.6519545007536447459209731030055
258,1.6527366477957726683593282134134
259,1.6535157701505363660858207715012
260,1.6542918911533559838852143382042
261,1.6550650338708956438688973347142
262,1.6558352211051784498124255059751
263,1.6566024753976215086580718253336
264,1.6573668190329964193977519129200
265,1.6581282740433137539257641238674
266,1.6588868622116336969580622029849
267,1.6596426050758060576144301295732
268,1.6603955239321396857278217191565
269,1.6611456398390055621475826731932
270,1.6618929736203692865270609968223
271,1.6626375458692622459016724323360
272,1.6633793769511854429710339166767
273,1.6641184870074534265491535661751
274,1.6648548959584755325535669559291
275,1.6655886235069783104635233868320
276,1.6663196891411674129551874262789
277,1.6670481121378364320815886644001
278,1.6677739115654144360011575600804
279,1.6684971062869637087805115091485
280,1.6692177149631197862000573194523
281,1.6699357560549816764489772905670
282,1.6706512478269497620425944982850
283,1.6713642083495145954747923774839
284,1.6720746555019937452087778608817
285,1.6727826069752234993355104444475
286,1.6734880802742014517150999563815
287,1.6741910927206850299649456053868
288,1.6748916614557423671431526701812
289,1.6755898034422601652668217818142
290,1.6762855354674092832684674973625
291,1.6769788741450658904088113850605
292,1.6776698359181910701319984666957
293,1.6783584370611727802183763460246
294,1.6790446936821252062333420676682
295,1.6797286217251475954991995907108
296,1.6804102369725501572386088389656
297,1.6810895550470369607001855485126
298,1.6817665914138551481075294494192
299,1.6824413613829072653788258441498
300,1.6831138801108284613120906195915
301,1.6837841626030289667674063168343
302,1.6844522237157039468718545005308
303,1.6851180781578078994728688887246
304,1.6857817404929971774669774416522
305,1.6864432251415420636308178525748
306,1.6871025463822076612753642836405
307,1.6877597183541007828018978360514
308,1.6884147550584903147134741675788
309,1.6890676703605971484767480144795
310,1.6897184779913540125096819001001
311,1.6903671915491388003318527609844
312,1.6910138245014789081448391973149
313,1.6916583901867279747283988864626
314,1.6923009018157168280661032540294
315,1.6929413724733779584860420395473
316,1.6935798151203448941025911576070
317,1.6942162425945240173123660697078
318,1.6948506676126441737383120506877
319,1.6954831027717812153373559994536
320,1.6961135605508574790841017548774
321,1.6967420533121201203226680733779
322,1.6973685933025944153798926506774
323,1.6979931926555155476403923960009
324,1.6986158633917378543904457871516
325,1.6992366174211232965815320828587
326,1.6998554665439073889115299315387
327,1.7004724224520454111539471627804
328,1.7010874967305360901098714656949
329,1.7017007008587277272214217802785
330,1.7023120462116032036976698069715
331,1.7029215440610453019179952023487
332,1.7035292055770834045280528106787
333,1.7041350418291219499603494484011
334,1.7047390637871488285840876260143
335,1.7053412823229280346002651225327
336,1.7059417082111726319217194524862
337,1.7065403521307009064754976009469
338,1.7071372246655767639740568750028
339,1.7077323363062304378620632692630
340,1.7083256974505655989808821075791
341,1.7089173184050485807366060833137
342,1.7095072093857822171313709937779
343,1.7100953805195639316620149109428
344,1.7106818418449280710130717761643
345,1.7112666033131743031020160382319
346,1.7118496747893795544998076954873
347,1.7124310660533970528185392435255
348,1.7130107868008392860271766633881
349,1.7135888466440484238625372002776
350,1.7141652551130517439233563026483
351,1.7147400216565041503033564204766
352,1.7153131556426174673850210140934
353,1.7158846663600757934369856084677
354,1.7164545630189383287574556349123
355,1.7170228547515300439217289235928
356,1.7175895506133183982027828203181
357,1.7181546595837793474939583258093
358,1.7187181905672518860315391402070
359,1.7192801523937768673609196865897
360,1.7198405538199290427731568371520
361,1.7203994035296340623980282069788
362,1.7209567101349769208758477669597
363,1.7215124821769964435497697620860
364,1.7220667281264708375085750003319
365,1.7226194563846925441897503805792
366,1.7231706752842312715630351254219
367,1.7237203930896880982593530857498
368,1.7242686179984374387421378210050
369,1.7248153581413615024365010865611
370,1.7253606215835729603701407020667
371,1.7259044163251286730243368303241
372,1.7264467503017334362697810452040
373,1.7269876313854337125038868325144
374,1.7275270673853056558834817767827
375,1.7280650660481281236408506124481
376,1.7286016350590521301272456967379
377,1.7291367820422585332332192092868
378,1.7296705145616071210418545758531
379,1.7302028401212789389711861988515
380,1.7307337661664086146356776319244
381,1.7312633000837095563371089867869
382,1.7317914492020891438347316168488
383,1.7323182207932585865517144732332
384,1.7328436220723324134218582137895
385,1.7333676601984212161422153210427
386,1.7338903422752183050078181076814
387,1.7344116753515760271992616371061
388,1.7349316664220756848639571877515
389,1.7354503224275917282305631447852
390,1.7359676502558474134288911519980
391,1.7364836567419622425309191292646
392,1.7369983486689947947763472412258
393,1.7375117327684784230724548364771
394,1.7380238157209483974716301462538
395,1.7385346041564633531268297661187
396,1.7390441046551206942291295925210
397,1.7395523237475655844828778192582
398,1.7400592679154935329220547277182
399,1.7405649435921451415299761278165
400,1.7410693571627973153185301687596
401,1.7415725149652469844885810894194
402,1.7420744232902880846124615744847
403,1.7425750883821846163158259822129
404,1.7430745164391376782966999005130
405,1.7435727136137439399054766365624
406,1.7440696860134516630955020765590
407,1.7445654397010113912760249008426
408,1.7450599806949188090747446498787
409,1.7455533149698526349299893533277
410,1.7460454484571100618452763955711
411,1.7465363870450340071985450739260
412,1.7470261365794357550892653295823
413,1.7475147028640140711992760840481
414,1.7480020916607672149438054726634
415,1.7484883086904021338322298439836
416,1.7489733596327372706459229289232
417,1.7494572501271018329184286191963
418,1.7499399857727286889735009951196
419,1.7504215721291451700744075979201
420,1.7509020147165567616750441207079
421,1.7513813190162276370425100606233
422,1.7518594904708573159713660616979
423,1.7523365344849512858673311626066
424,1.7528124564251892000894105386378
425,1.7532872616207870341031800605313
426,1.7537609553638568075033991458571
427,1.7542335429097613577784292645092
428,1.7547050294774641807827702666105
429,1.7551754202498782516039440525001
430,1.7556447203742066892648283589768
431,1.7561129349622827702744112841422
432,1.7565800690909064419404549394515
433,1.7570461278021726747629244997764
434,1.7575111161038027533060954216581
435,1.7579750389694663307159335302759
436,1.7584379013391021493975008573651
437,1.7588997081192355907897866113890
438,1.7593604641832920378948133329550
439,1.7598201743719067335068958967337
440,1.7602788434932322070260764485263
441,1.7607364763232404314247149479271
442,1.7611930776060232757680290327282
443,1.7616486520540909027787549911517
444,1.7621032043486627326552432627885
445,1.7625567391399603056862407922183
446,1.7630092610474930699351739702558
447,1.7634607746603442651394889475740
448,1.7639112845374501230454306500341
449,1.7643607952078802267522561511801
450,1.7648093111711111836284401912943
451,1.7652568368973011170630937949000
452,1.7657033768275578206271242713795
453,1.7661489353742063199924119696222
454,1.7665935169210522338942107303049
455,1.7670371258236445603989213505099
456,1.7674797664095331879275888284176
457,1.7679214429785258292547059131140
458,1.7683621598029407769525366068053
459,1.7688019211278579968414274775055
460,1.7692407311713682044965832947163
461,1.7696785941248177773072738284066
462,1.7701155141530527179782006064491
463,1.7705514953946602761603608990714
464,1.7709865419622063921046710500111
465,1.7714206579424729341348357553610
466,1.7718538473966918637811859489231
467,1.7722861143607756123108843055660
468,1.7727174628455486876026385019212
469,1.7731478968369729914514030425034
470,1.7735774202963743753214610683822
471,1.7740060371606647052218363442981
472,1.7744337513425637369794898682290
473,1.7748605667308161565649373297723
474,1.7752864871904112933195063869412
475,1.7757115165627944327991265875997
476,1.7761356586660822470915005636723
477,1.7765589172952726797790387800229
478,1.7769812962224539658082688860853
479,1.7774027991970116800422009190644
480,1.7778234299458342135854636575692
481,1.7782431921735152333879711175373
482,1.7786620895625566986618524491671
483,1.7790801257735678189982978400053
484,1.7794973044454627789443143155738
485,1.7799136291956587110712813747513
486,1.7803291036202685076112211893469
487,1.7807437312942953248860287271918
488,1.7811575157718233825873057253755
489,1.7815704605862082917541538583829
490,1.7819825692502647803793120679928
491,1.7823938452564539569063743627856
492,1.7828042920770687059469614079163
493,1.7832139131644171975419027419920
494,1.7836227119510056104985797711836
495,1.7840306918497182689774434110282
496,1.7844378562539984436167732400543
497,1.7848442085380255097735542890674
498,1.7852497520568924154046446758438
499,1.7856544901467809633738731619872
500,1.786058426125137046348573217634
501,1.786461563290841588205790207531
502,1.786863904924384655237495023682
503,1.787265454288034213625773441028
504,1.787666214626007385619193679870
505,1.788066189164637060715511421354
506,1.788465381112539601036937061758
507,1.788863793660781498301926825404
508,1.789261429983044631994024638954
509,1.789658293235788369561150098718
510,1.790054386558414572110638636090
511,1.790449713073428747220456210563
512,1.790844275886601259922905680544
513,1.791238078087127228793383316978
514,1.791631122747785795143601824561
515,1.792023412925099151507641191688
516,1.792414951659489552075012641823
517,1.792805741975435392499497633954
518,1.793195786881628157557030395715
519,1.793585089371127032092171768029
520,1.793973652421514046175031771607
521,1.794361478995046564046798852646
522,1.794748572038811407865111173388
523,1.795134934484877068676051627025
