Eigenstate,Potential Energy
1,0.500000000078247404791173066841140560
2,0.64623093816187379422445852491137240
3,0.73633761120529341442202173911472254
4,0.79966528093924075308100264591820718
5,0.8480465806988537730939935900304142
6,0.8870660052467004675262609659848231
7,0.9197208360246707194585792310163314
8,0.9477838594116918133829820430006346
9,0.9723835744152180433606398648328005
10,0.9942802351845880880255140606371909
11,1.0140094118613869342656288221956148
12,1.0319621997506655716215641677926166
13,1.0484327289185807344742900983060602
14,1.0636476970485840240928415080581635
15,1.0777854852556234422497085294575489
16,1.090988962956598983426138549292745
17,1.103374321331873919552413836152265
18,1.115037324331479013100744671259881
19,1.126057831779093476636246744577653
20,1.136503137005983820797039275899284
21,1.146430472932702797697812743077312
22,1.155888923227830851985235790629788
23,1.164920900244501775925066896346267
24,1.173563302420825638865931326400877
25,1.181848431075815781070352305429903
26,1.189804724216977041852429837683537
27,1.197457349502881978926374845732222
28,1.204828687602211018665508271691501
29,1.211938729395704649864258638976428
30,1.218805404817988200355530345702417
31,1.225444856990291232945708775622804
32,1.231871672217184010377220821627050
33,1.238099074110805673423858038667438
34,1.244139088355512508988195235099865
35,1.250002683286679618576705961652562
36,1.255699890423910418391133966989274
37,1.261239908294823853320024212284827
38,1.266631192255170463642840619298476
39,1.271881532513179793489661302547279
40,1.276998122170220846360881807864810
41,1.281987616773107019140288048851789
42,1.286856186618384344412523206120807
43,1.291609562842455525887705123542455
44,1.296253078163298236159162232267271
45,1.300791703001966576965777658709366
46,1.305230077598928319491171088757652
47,1.309572540646813929863596468240863
48,1.313823154883567020742898625886969
49,1.317985730025323325960208710240222
50,1.32206384336422258150311471690399
51,1.32606085831089073365060297133161
52,1.32997994112298468074906176492635
53,1.33382407602874163656359532795924
54,1.33759607892691407167356074049198
55,1.34129860982099569686151570753657
56,1.34493418412556938231308200551226
57,1.34850518296540894132067434112647
58,1.35201386257316952088865669685996
59,1.35546236287874739435793647661231
60,1.35885271537236544346283248795109
61,1.36218685031387638972527946625081
62,1.36546660335247482997575850129074
63,1.36869372161376724176738624551887
64,1.37186986930483664452586057619055
65,1.37499663288240376230363639205081
66,1.37807552582433919495105514453358
67,1.38110799304051881319029657952397
68,1.38409541495525843226841113554455
69,1.38703911129025114813816113418664
70,1.38994034457400245185011906449185
71,1.39280032340115953410843901934879
72,1.39562020546283294956139401612356
73,1.39840110036695580399459497321229
74,1.40114407226590677904094136259083
75,1.40385014230699220791840317529616
76,1.40652029091993285895067364151420
77,1.40915545995419868520780102598578
78,1.41175655467786900042310260693774
79,1.41432444564864872135036209129588
80,1.41685997046673319108042538055204
81,1.41936393541836475635989535441120
82,1.42183711701816282140066484588661
83,1.42428026345762036687927148500057
84,1.42669409596653563110897589081664
85,1.42907931009358837419359321268781
86,1.43143657691175428058259691422773
87,1.43376654415379358464742839410325
88,1.43606983728262662616287013706886
89,1.43834706050102554041600495484138
90,1.44059879770470807093587247405957
91,1.44282561338259804078654038431709
92,1.44502805346772872082673126098182
93,1.44720664614200307828397173023364
94,1.44936190259778196025295591720872
95,1.45149431775905011269883966466090
96,1.45360437096470811342988497884734
97,1.45569252661635395539439403646669
98,1.45775923479274514236192008552345
99,1.45980493183297868686024835874371
100,1.46183004089028005982300947156189
101,1.46383497245816283724897416918530
102,1.46582012487059521445269778768370
103,1.46778588477770164487344327593572
104,1.46973262759842059569951770460852
105,1.47166071795144633880752007041395
106,1.47357051006569193127311737147194
107,1.47546234817143245775423543823925
108,1.47733656687320836749361699814558
109,1.47919349150550014515346288905800
110,1.48103343847212313456994407014608
111,1.48285671557022547331702171533138
112,1.48466362229972266233583959983954
113,1.48645445015894675909175152459836
114,1.48822948292723942496506551295886
115,1.48998899693517760907900946276917
116,1.49173326132307231912052508870921
117,1.49346253828834921670277594681303
118,1.49517708332237874371279879949028
119,1.49687714543728977237176672280231
120,1.49856296738327492950050252596113
121,1.50023478585685747823852086362881
122,1.50189283170057072733271423642415
123,1.50353733009446874517966767981164
124,1.50516850073986947599715057192613
125,1.50678655803570178923760400270885
126,1.50839171124781279605884016737654
127,1.50998416467157118878098308203151
128,1.51156411778807977206927974057720
129,1.51313176541429828134409197996276
130,1.51468729784735920205250113250609
131,1.51623090100334389931804347443778
132,1.51776275655077139028504245410528
133,1.51928304203904030988882868044462
134,1.52079193102205334482626257161133
135,1.52228959317723530215762866380630
136,1.52377619442015229144072520180764
137,1.52525189701492619135541116604481
138,1.52671685968062495978581157505174
139,1.52817123769380724042227558048569
140,1.52961518298738427297714361332955
141,1.53104884424595755661835531770299
142,1.53247236699778264295880835240576
143,1.53388589370350078476935867393137
144,1.53528956384177298694760892341662
145,1.53668351399194681851487006152534
146,1.53806787791387847566379731321925
147,1.53944278662502438291289443297434
148,1.54080836847491766139122814236628
149,1.54216474921713126520293322128064
150,1.54351205207883142674322790458094
151,1.54485039782801732521586595281602
152,1.54617990483853727751552065886767
153,1.54750068915297040116393649372672
154,1.54881286454345764853579941286147
155,1.55011654257056044836150236963987
156,1.55141183264022482086424273479472
157,1.55269884205892201312817091060468
158,1.55397767608703747279348534146350
159,1.5552484379905718329057190093883
160,1.5565112290912202454514653522403
161,1.5577661488148885596943045637517
162,1.5590132947387058064054521542507
163,1.5602527626365878412813362929335
164,1.5614846465234067841375990271920
165,1.5627090386978148540908485264513
166,1.5639260297837731163109614859409
167,1.5651357087708323726585907960826
168,1.5663381630532088851164426687019
169,1.5675334784676999940997558772597
170,1.5687217393304793747584369911914
171,1.5699030284728121257267120020406
172,1.5710774272757275569755959567197
173,1.5722450157036850790950661628937
174,1.5734058723372690375176996058537
175,1.5745600744049464766140196390438
176,1.5757076978139175400106665110009
177,1.5768488171800917676667370462401
178,1.5779835058572194441037605197597
179,1.5791118359652044427337762789315
180,1.5802338784176295126843644062968
181,1.5813497029485166567063648686763
182,1.5824593781383502955500759540970
183,1.5835629714393862680846861044372
184,1.5846605492002709086978263378406
185,1.5857521766899920101008514333590
186,1.5868379181211826401593776221301
187,1.5879178366728016132505017082560
188,1.5889919945122060524626669643573
189,1.5900604528166397737290956982527
190,1.5911232717941531429723860578341
191,1.5921805107039736288134652850685
192,1.5932322278763434330469786710468
193,1.5942784807318425027320911268093
194,1.5953193258002102646805348932558
195,1.5963548187386840147017994347463
196,1.5973850143498676535040547115335
197,1.5984099665991451445729669514897
198,1.5994297286316528560070321471937
199,1.6004443527888236201644560187208
200,1.6014538906245164513216942146957
201,1.6024583929207428977619455141909
202,1.6034579097030034044472417231545
203,1.6044524902552443409952406984760
204,1.6054421831344473098656973449139
205,1.6064270361848607001103061334883
206,1.6074070965518865054259819724593
207,1.6083824106956282771813563911839
208,1.6093530244041144338645860570897
209,1.6103189828062026698261530441048
210,1.6112803303841769589605448445050
211,1.6122371109860445123298241927253
212,1.6131893678375429168986987774690
213,1.6141371435538618333164704886335
214,1.6150804801510942284778466754457
215,1.6160194190574163491367655757632
216,1.6169540011240103910738473220615
217,1.6178842666357338229031661941128
218,1.6188102553215443370128627307175
219,1.6197320063646837006214556701959
220,1.6206495584126330151226593244837
221,1.6215629495868372860553444765335
222,1.6224722174922165011118853762920
223,1.6233773992264567770634036404609
224,1.6242785313890966349495856737984
225,1.6251756500904109601245418106806
226,1.6260687909600961851505485494954
227,1.6269579891557653384363463565174
228,1.6278432793712547688723553772729
229,1.6287246958447496986583120503798
230,1.6296022723667332906136015763700
231,1.6304760422877610192876745911150
232,1.6313460385260707548386817915150
233,1.6322122935750235452334204175081
234,1.6330748395103912428832665084002
235,1.6339337079974841468667895040840
236,1.6347889302981283595581319706902
237,1.6356405372774964778396164571335
238,1.6364885594107933499630170941168
239,1.6373330267898023336912708483605
240,1.6381739691292942091933357879398
241,1.6390114157733030280936624712174
242,1.6398453957012717546817447032342
243,1.6406759375340717301123801652425
244,1.6415030695398976478872809368215
245,1.6423268196400424137881224986339
246,1.6431472154145544088868748338326
247,1.6439642841077785374781524538161
248,1.6447780526337886405486539502797
249,1.6455885475817062433612992803647
250,1.6463957952209160213377216259791
251,1.6471998215061758837305263116845
252,1.6480006520826244730654542010345
253,1.6487983122906911520393148184693
254,1.6495928271709081342139910109909
255,1.6503842214686286380203802106244
256,1.6511725196386511489264281673856
257,1.6519577458497561806001496250411
258,1.6527399239891519792166114127536
259,1.6535190776668359738497791978543
260,1.6542952302198723587464890862047
261,1.6550684047165861206331468511084
262,1.6558386239606782358834237752270
263,1.6566059104952608875305074878245
264,1.6573702866068181523809063562165
265,1.6581317743290906828633133874719
266,1.6588903954468865507515008541795
267,1.6596461714998214654020857117215
268,1.6603991237859883996180275377861
269,1.6611492733655608924481274546147
270,1.6618966410643257524622700580403
271,1.6626412474771544448540765035746
272,1.6633831129714071413345078666296
273,1.6641222576902768753292403268345
274,1.6648587015560710109005885515517
275,1.6655924642734339003761620440583
276,1.6663235653325090084435250802687
277,1.6670520240120479861321444854878
278,1.6677778593824584487402864079763
279,1.6685010903088019602880277779083
280,1.6692217354537343174803377460757
281,1.6699398132803960221242311720583
282,1.6706553420552504383914335785905
283,1.6713683398508728474982931694658
284,1.6720788245486875564660280768162
285,1.6727868138416598683530476421662
286,1.6734923252369389388366646348406
287,1.6741953760584565785715796728239
288,1.6748959834494784032397471208204
289,1.6755941643751119794958205197689
290,1.6762899356247726994800463574163
291,1.6769833138146052249852868468365
292,1.6776743153898633863345065159427
293,1.6783629566272524418940646399808
294,1.6790492536372287352957789959676
295,1.6797332223662588376676295638914
296,1.6804148785990457605969528305274
297,1.6810942379607121717148146309990
298,1.6817713159189499298203499147845
299,1.6824461277861327425719917088829
300,1.6831186887213936975229961033895
301,1.6837890137326680781151202608401
302,1.6844571176787035577404277708003
303,1.6851230152710349451840070784027
304,1.6857867210759270591619766361212
305,1.6864482495162871606714914154002
306,1.6871076148735462065650848921745
307,1.6877648312895061065208830905246
308,1.6884199127681604620584630711339
309,1.6890728731774848770900256959846
310,1.6897237262511971753834597472228
311,1.6903724855904911200734116093012
312,1.6910191646657411485910526435400
313,1.6916637768181795160029993565805
314,1.6923063352615476512790944174657
315,1.6929468530837210463848868449721
316,1.6935853432483090540957142515387
317,1.6942218185962271333975013682783
318,1.6948562918472468939861745953017
319,1.6954887756015210816961607752068
320,1.6961192823410835063939829759496
321,1.6967478244313278315490966453667
322,1.6973744141224613402022142665581
323,1.6979990635509371916579861607330
324,1.6986217847408641463408329853541
325,1.6992425896053955210963064561876
326,1.6998614899480956124726643723706
327,1.7004784974642864090514592345896
328,1.7010936237423717823426972626589
329,1.7017068802651441314281073711474
330,1.7023182784110699133502437194479
331,1.7029278294555554981630970751952
332,1.7035355445721944102119198122051
333,1.7041414348339963345326834185336
334,1.7047455112145960727325250215388
335,1.7053477845894467636338080836773
336,1.7059482657369934270851577971455
337,1.7065469653398297035484929978284
338,1.7071438939858388486821574353838
339,1.7077390621693150478022941027177
340,1.7083324802920711419483545946155
341,1.7089241586645284795210401030839
342,1.7095141075067913910426051714826
343,1.7101023369497059252346882737297
344,1.7106888570359028405407014161272
345,1.7112736777208266718473299444834
346,1.7118568088737483476363447972571
347,1.7124382602787649233686613342664
348,1.7130180416357832432741955240719
349,1.7135961625614910759333818841505
350,1.7141726325903132664650713140098
351,1.7147474611753549933996573178176
352,1.7153206576893318130982901840879
353,1.7158922314254857765952558762246
354,1.7164621915984890338522858691702
355,1.7170305473453352912298834033210
356,1.7175973077262173325013969406227
357,1.7181624817253938429965928413672
358,1.7187260782520447814400384904929
359,1.7192881061411110451987431572349
360,1.7198485741541273674444500599464
361,1.7204074909800401916992399232548
362,1.7209648652360170059782987605783
363,1.7215207054682417327679654654403
364,1.7220750201527011994708301438464
365,1.7226278176959609263413036832110
366,1.7231791064359291102445004482266
367,1.7237288946426116969315518348181
368,1.7242771905188553312574660548284
369,1.7248240022010828185978147107265
370,1.7253693377600168113629673546419
371,1.7259132052013945746660040278063
372,1.7264556124666727883787713037319
373,1.7269965674337223530655064923400
374,1.7275360779175175090689424566437
375,1.7280741516708099611204166187660
376,1.7286107963847994655236279398334
377,1.7291460196897926699598671670874
378,1.7296798291558533741919448331277
379,1.7302122322934460523474169714636
380,1.7307432365540693944475521649262
381,1.7312728493308827435354116967866
382,1.7318010779593225475140932993712
383,1.7323279297177135013152539450167
384,1.7328534118278693440812727384032
385,1.7333775314556869336180301937004
386,1.7339002957117342577941690166344
387,1.7344217116518281332693281074001
388,1.7349417862776055294197662585055
389,1.7354605265370891932385077207940
390,1.7359779393252447654309659984800
391,1.7364940314845297057891704906686
392,1.7370088098054376373837954826520
393,1.7375222810270355842539147523257
394,1.7380344518374926849071896254726
395,1.7385453288746032397506198235176
396,1.7390549187263037445885177138150
397,1.7395632279311835414011885153702
398,1.7400702629789890958687969275162
399,1.7405760303111204687922166686124
400,1.7410805363211242827622894171064
401,1.7415837873551792344235866893714
402,1.7420857897125748990039342152666
403,1.7425865496461866493447277659162
404,1.7430860733629445840437598898355
405,1.7435843670242939317210160966889
406,1.7440814367466530420401928105043
407,1.7445772886018660818376934547154
408,1.7450719286176479412332200638190
409,1.7455653627780242125075077560289
410,1.7460575970237687579835653902459
411,1.7465486372528331287217194554164
412,1.7470384893207714184596580572651
413,1.7475271590411616337366980421889
414,1.7480146521860200059775538986821
415,1.7485009744862125314706175809768
416,1.7489861316318601708949081705363
417,1.7494701292727405589529215090777
418,1.7499529730186833894670425875951
419,1.7504346684399637566222251929775
420,1.7509152210676884365008869996726
421,1.7513946363941790633742381990369
422,1.7518729198733514846863735527691
423,1.7523500769210891332652064615727
424,1.7528261129156140329341024840917
425,1.7533010331978518193960492314716
426,1.7537748430717943858052390132920
427,1.7542475478048576402939298012028
428,1.7547191526282343918423140191137
429,1.7551896627372462796527969335533
430,1.7556590832916876109735787055079
431,1.7561274194161686139343850961125
432,1.7565946762004552578953382011296
433,1.7570608586998009822661730001170
434,1.7575259719352814348678608369040
435,1.7579900208941200467290361969917
436,1.7584530105300123476071498216856
437,1.7589149457634471869859759548186
438,1.7593758314820238460856466681109
439,1.7598356725407657257475702921777
440,1.7602944737624316850587588706687
441,1.7607522399378221943188885892879
442,1.7612089758260838698351134475847
443,1.7616646861550120421862534089204
444,1.7621193756213459813770723232303
445,1.7625730488910661136903362131852
446,1.7630257105996842588548940632168
447,1.7634773653525340610699244342219
448,1.7639280177250548365839973925611
449,1.7643776722630766829411205727638
450,1.7648263334830990070754372465290
451,1.7652740058725699802072404060384
452,1.7657206938901597658867222754000
453,1.7661664019660332693836455603708
454,1.7666111345021188026406894396818
455,1.7670548958723762940731854534714
456,1.7674976904230603457787443174265
457,1.7679395224729828395668217215343
458,1.7683803963137714935846970859951
459,1.7688203162101268894862923282699
460,1.7692592864000776186926057524388
461,1.7696973110952314038362212979537
462,1.7701343944810254149890488987920
463,1.7705705407169743911800052100658
464,1.7710057539369147350273396469949
465,1.7714400382492485563404342639801
466,1.7718733977371848027047026826823
467,1.7723058364589767650986763348431
468,1.7727373584481609819193050236136
469,1.7731679677137900260819769669103
470,1.7735976682406667079256091047749
471,1.7740264639895739694632199504838
472,1.7744543588975047762564074167593
473,1.7748813568778873667512068276403
474,1.7753074618208133722490592287816
475,1.7757326775932577397234703847095
476,1.7761570080393029810266952163369
477,1.7765804569803580914944948393469
478,1.7770030282153768242653549276812
479,1.7774247255210742203136757863818
480,1.7778455526521417997227969128897
481,1.7782655133414599763418218999902
482,1.7786846113003112762187179922023
483,1.7791028502185897517689922439390
484,1.7795202337650094237475687877245
485,1.7799367655873132406043966738201
486,1.7803524493124771530913083324784
487,1.7807672885469161663915424583825
488,1.7811812868766869801550381284055
489,1.7815944478676904588693726483677
490,1.7820067750658718103816421852293
491,1.7824182719974206220072624668598
492,1.7828289421689693580391059958854
493,1.7832387890677903097822520675909
494,1.7836478161619921087862099614258
495,1.7840560269007140129227521797953
496,1.7844634247143212274387447101971
497,1.7848700130145969647726984705868
498,1.7852757951949352072455142250489
499,1.7856807746305316894148715398486
500,1.786084954678575250662862531786
501,1.786488338678435324782856535808
502,1.786890929951853043136818663626
503,1.787292731803127441631152011751
504,1.787693747519304638168277003584
505,1.788093980370362851632234351912
506,1.788493433609399016876615115405
507,1.788892110472814868915679975741
508,1.789290014180502162324131928690
509,1.789687147936025283639624408456
510,1.790083514926807337824797783800
511,1.790479118324312968636667774272
512,1.790873961284231842850169552837
513,1.791268046946661444848771366661
514,1.791661378436289889885221459509
515,1.792053958862579163255522084953
516,1.792445791319947029872442309647
517,1.792836878887948724313498382337
518,1.793227224631460243313491878008
519,1.793616831600860060517920830682
520,1.794005702832212159719556570220
521,1.794393841347447222415728167226
522,1.794781250154546287946209629546
523,1.795167932247723366957367102171
