Eigenstate,Potential Energy
1,0.500000000025415112756797923415998493
2,0.64623093781701115029771775612726713
3,0.73633761019228278074614417509986993
4,0.79966527882924259087201012805701076
5,0.8480465770438771806842707395532928
6,0.8870659995908964267176876678610138
7,0.9197208279084909307752820035357760
8,0.9477838483736210705281286920549324
9,0.9723835599925779221585642552810756
10,0.9942802169139431336224168782067681
11,1.0140093892787637204215317407669486
12,1.0319621723916764002416265459278609
13,1.0484326963184954187040757964417457
14,1.0636476587423717911746753170115959
15,1.0777854407779768079136300478680420
16,1.090988911841946299361327112714862
17,1.103374263114384550490960894333383
18,1.115037258545063568721723741621399
19,1.126057757957400634501252717555482
20,1.136503054682394741997939195398130
21,1.146430381640323805347492297861697
22,1.155888822499484831252689534889733
23,1.164920789612718616094512717178020
24,1.173563181417831945490929960624755
25,1.181848299233524023248170596603833
26,1.189804581066974255830871864886978
27,1.197457194576418118291138411257068
28,1.204828520430187019132772263842106
29,1.211938549508660260525614268851700
30,1.218805211746089621290918603773173
31,1.225444650263318590213177305618812
32,1.231871451364518692664441073315865
33,1.238098838661417549517129241764106
34,1.244138837837947041263761022463786
35,1.250002417229044884648069470445034
36,1.255699608353864050638460609000006
37,1.261239609739559904124978651491526
38,1.266630876741406202637263319150339
39,1.271881199567142441911598596445655
40,1.276997771317634252630594139496589
41,1.281987247539178278972009708669244
42,1.286855798527790368126260603117948
43,1.291609155419329555049707960485278
44,1.296252650931216311236937860699977
45,1.300791255483933957315446415247758
46,1.305229609317365856687413357785087
47,1.309572051123544395124387805700180
48,1.313822643639801386983373890966609
49,1.317985196581647004825456117504516
50,1.32206328724058161557264210465827
51,1.32606027902657794387270616204483
52,1.32997933819662576904798961125917
53,1.33382344897828124346284222340589
54,1.33759542726960178869227508964094
55,1.34129793307337203336596237235393
56,1.34493348180345168643950688127465
57,1.34850445458387727452834780992574
58,1.35201310764655248565095057694621
59,1.35546158092060791445455069722595
60,1.35885190589548649629612330383315
61,1.36218601283024669004800472754912
62,1.36546573737327446438534929294328
63,1.36869282664935325329304255768956
64,1.37186894486472856660851548120140
65,1.37499567847526910144485855672219
66,1.37807454095797886128519057160749
67,1.38110697722185249821403145784280
68,1.38409436769030993294335362434088
69,1.38703803208413363656465244766443
70,1.38993923293090368969466765350764
71,1.39279917882432703095165595134471
72,1.39561902745455906431946198124793
73,1.39839988842856278855345992949985
74,1.40114282589773176322980668032374
75,1.40384886100837212493662704536701
76,1.40651897418918931035062975735517
77,1.40915410728862274452467111092398
78,1.41175516557370595453167124566329
79,1.41432301960108274861812607918699
80,1.41685850696987197537607215894817
81,1.41936243396522403596580936370196
82,1.42183557710065087186820100732029
83,1.42427868456652241685575057021733
84,1.42669247759149821015553778537840
85,1.42907765172310359160343819745971
86,1.43143487803314403419973361800547
87,1.43376480425319369867638664843732
88,1.43606805584497091695052747213860
89,1.43834523701002980917722122777614
90,1.44059693164285402238531691280675
91,1.44282370423111712662948409892792
92,1.44502610070658590705239652811567
93,1.44720464924988053519542224185799
94,1.44935986105206267415804925832487
95,1.45149223103580141817728245814502
96,1.45360223853866514508178974040956
97,1.45569034796090301796601856057713
98,1.45775700937990699813472574320990
99,1.45980265913339175917931362036803
100,1.46182772037318355163121662893285
101,1.46383260359137976348316395077988
102,1.46581770712051534714803778787565
103,1.46778341760926436981212034659446
104,1.46973011047509767942923855185393
105,1.47165815033522460484524229034316
106,1.47356789141705584429868156849226
107,1.47545967794934661458806099289308
108,1.47733384453509989364167001880074
109,1.47919071650724099569186113777727
110,1.48103061026801229813053510632373
111,1.48285383361297107792411573632072
112,1.48466068604042398183280440535906
113,1.48645145904707611888480816325082
114,1.48822643641062400579994437455920
115,1.48998589445998114755440864285511
116,1.49173010233377670363029705166995
117,1.49345932222773597748668871758407
118,1.49517380963151043568356761247482
119,1.49687381355549124937350167358130
120,1.49855957674811450864108135882486
121,1.50023133590412799292585730690862
122,1.50188932186427046763173372821127
123,1.50353375980678228409379388383093
124,1.50516486943114838026484138740851
125,1.50678286513444521322089433172655
126,1.50838795618064795728724613817796
127,1.50998034686323372370035223409584
128,1.51156023666139397053091085966583
129,1.51312782039015719835538493152776
130,1.51468328834470464529595034323363
131,1.51622682643914629093080987061741
132,1.51775861634000950137599884087328
133,1.51927883559468086625580045555320
134,1.52078765775503050232015353189006
135,1.52228525249642999012486872782861
136,1.52377178573237142266005675713639
137,1.52524741972488173686873833449500
138,1.52671231319091288700688351254053
139,1.52816662140488631289056480033494
140,1.52961049629755471010761167409540
141,1.53104408655133955178123217296102
142,1.53246753769229473820601496881724
143,1.53388099217883810050732421575432
144,1.53528458948738530483831348287595
145,1.53667846619501651586943147331376
146,1.53806275605929830957462889834421
147,1.53943759009537512235231153160607
148,1.54080309665044556548578899239059
149,1.54215940147572540587371583764740
150,1.54350662779600085388381540354387
151,1.54484489637686807255940344598472
152,1.54617432558974920732356742768284
153,1.54749503147477388584924761321300
154,1.54880712780161008731135662389866
155,1.55011072612832261698746284366602
156,1.55140593585833705254339573272771
157,1.55269286429558020858006903940491
158,1.55397161669786893751544527887573
159,1.5552422963286109396074939423691
160,1.5565050045068839196283064036658
161,1.5577598406559515862808108883586
162,1.5590069023502759554298823189983
163,1.5602462853610808104175920344815
164,1.5614780837005209560280926240932
165,1.5627023896645058662901963787190
166,1.5639192938742282416767576003925
167,1.5651288853164447079908288529120
168,1.5663312513825513458225230207816
169,1.5675264779064991126375265868858
170,1.5687146492015889005834958461198
171,1.5698958480961864244454530237138
172,1.5710701559683948063785354917321
173,1.5722376527797202597192508281091
174,1.5733984171077667153595760634459
175,1.5745525261779933755873344918849
176,1.5757000558945649017159762132734
177,1.5768410808703274960115364964679
178,1.5779756744559400322833526809952
179,1.5791039087681866800545823743278
180,1.5802258547175019686817442602036
181,1.5813415820347309399796513254104
182,1.5824511592971520847073412020128
183,1.5835546539537861121590811499223
184,1.5846521323500147943666358582534
185,1.5857436597515316930061792916091
186,1.5868293003676457375990445888247
187,1.5879091173739614554737266529638
188,1.5889831729344512897732116302971
189,1.5900515282229437365649494619951
190,1.5911142434440429520976538168584
191,1.5921713778534990527229027629232
192,1.5932229897780454896499806511209
193,1.5942691366347218023467139548666
194,1.5953098749496950913331890343529
195,1.5963452603765981426907590414492
196,1.5973753477143978961493309591538
197,1.5984001909248086320365882088893
198,1.5994198431492640390305465428453
199,1.6004343567254609965314019785936
200,1.6014437832034890118139084936680
201,1.6024481733615562883394568749708
202,1.6034475772213258013395978055917
203,1.6044420440628720353532591823697
204,1.6054316224392699985796867523853
205,1.6064163601908264793593393712306
206,1.6073963044589665634801356369646
207,1.6083715016997812829348435724291
208,1.6093419976972506175346461264197
209,1.6103078375761475922068030850369
210,1.6112690658146349655758975398127
211,1.6122257262565618687853492794232
212,1.6131778621234706216817366190076
213,1.6141255160263181042502459946541
214,1.6150687299769266589851556770650
215,1.6160075453991637304204111599553
216,1.6169420031398641962712403303789
217,1.6178721434794993492225435754245
218,1.6187980061426015018073876525143
219,1.6197196303079474873048994867139
220,1.6206370546185135647784731684192
221,1.6215503171911996305373221766153
222,1.6224594556263399333798256722798
223,1.6233645070169938544427208004001
224,1.6242655079580318109471909429650
225,1.6251624945550188403771290423505
226,1.6260555024328994030229330052722
227,1.6269445667444920457298930809669
228,1.6278297221787957370430413653649
229,1.6287110029691150258841848397914
230,1.6295884429010087099899349777462
231,1.6304620753200638033656152201944
232,1.6313319331395052116601608141744
233,1.6321980488476361009504636608162
234,1.6330604545151251059852912586784
235,1.6339191818021335489724769099182
236,1.6347742619652923676614167208018
237,1.6356257258645323728314004821676
238,1.6364736039697695661797339837354
239,1.6373179263674509541725127421500
240,1.6381587227669630112571689867453
241,1.6389960225069070737669955002915
242,1.6398298545612445204492726708576
243,1.6406602475453157703708571133280
244,1.6414872297217347864178703296227
245,1.6423108290061634574805103068041
246,1.6431310729729683778704695679709
247,1.6439479888607614057361164390781
248,1.6447616035778315810091741680552
249,1.6455719437074633713776960649036
250,1.6463790355131516303852942629697
251,1.6471829049437111670627645293097
252,1.6479835776382837249860759885092
253,1.6487810789312474423580863501443
254,1.6495754338570284493650980613610
255,1.6503666671548184822316608470610
256,1.6511548032731985987345590979778
257,1.6519398663746753859143322981580
258,1.6527218803401261040370185172286
259,1.6535008687731595696506742958143
260,1.6542768550043931634350749449123
261,1.6550498620956462758956188801871
262,1.6558199128440549156275366628762
263,1.6565870297861063300310419859324
264,1.6573512352015990886291584627606
265,1.6581125511175271535147013589204
266,1.6588709993118901039572120457865
267,1.6596266013174327277005389656979
268,1.6603793784253140119487802412690
269,1.6611293516887098032379715379050
270,1.6618765419263448596164214717358
271,1.6626209697259635783684740571329
272,1.6633626554477333781240089953527
273,1.6641016192275881777461705779506
274,1.6648378809805091802930312835479
275,1.6655714604037468369104136514568
276,1.6663023769799822682861432327479
277,1.6670306499804356269572314211723
278,1.6677562984679131543954562126899
279,1.6684793412998044353171522885685
280,1.6691997971310219420648558688515
281,1.6699176844168907578651469611374
282,1.6706330214159859752123510791770
283,1.6713458261929209818062150760352
284,1.6720561166210837905596856742950
285,1.6727639103853282209193954002466
286,1.6734692249846159562249357630879
287,1.6741720777346145363798752777770
288,1.6748724857702476875917816441391
289,1.6755704660482026372267358688992
290,1.6762660353493951462871675681327
291,1.6769592102813901004346391083370
292,1.6776500072807805444454091355853
293,1.6783384426155290658547127622184
294,1.6790245323872665646859606333328
295,1.6797082925335504963907248692896
296,1.6803897388300901735410440479789
297,1.6810688868929290579801707941202
298,1.6817457521805933601642594368625
299,1.6824203499962037485316505592548
300,1.6830926954895519194843198170959
301,1.6837628036591424393978324544541
302,1.6844306893542019515711881035932
303,1.6850963672766529212242733540450
304,1.6857598519830554960505853016316
305,1.6864211578865189108305705695846
306,1.6870802992585816993038471499149
307,1.6877372902310578952523315074206
308,1.6883921447978567012211624913210
309,1.6890448768167717141418689425216
310,1.6896955000112400430022713012433
311,1.6903440279720749134648350741591
312,1.6909904741591692725645612875777
313,1.6916348519031717862336627196789
314,1.6922771744071370339254632312386
315,1.6929174547481492199790731728803
316,1.6935557058789207773656204579768
317,1.6941919406293634024196525239577
318,1.6948261717081368717993936618477
319,1.6954584117041727832367335016748
320,1.6960886730881732213338666959557
321,1.6967169682140882673394862151702
322,1.6973433093205684673346922566601
323,1.6979677085323957728662043383245
324,1.6985901778618919311656435853122
325,1.6992107292103060869341580230631
326,1.6998293743691798329185281466851
327,1.7004461250216925300323607190450
328,1.7010609927439840862163184904690
329,1.7016739890064601688944456105037
330,1.7022851251750762826917151726793
331,1.7028944125126021509876350661554
332,1.7035018621798674625288690296204
333,1.7041074852369893616372123026049
334,1.7047112926445798660172451782479
335,1.7053132952649375270773000622874
336,1.7059135038632193907960041379825
337,1.7065119291085961313615886267656
338,1.7071085815753914164165769089670
339,1.7077034717442015683957416199375
340,1.7082966100030016132783592220225
341,1.7088880066482334303136109677103
342,1.7094776718858784998488612969986
343,1.7100656158325148870313258211078
344,1.7106518485163584550705135819930
345,1.7112363798782901273769400359826
346,1.7118192197728666733527964211672
347,1.7124003779693185831736012636199
348,1.7129798641525318432664300836094
349,1.7135576879240171573895614390233
350,1.7141338588028641556356836673153
351,1.7147083862266826789432244391537
352,1.7152812795525308214622079987666
353,1.7158525480578290151345058495356
354,1.7164222009412615709463129040988
355,1.7169902473236660421185160884968
356,1.7175566962489086190056879585611
357,1.7181215566847487947305713700266
358,1.7186848375236925455438319768854
359,1.7192465475838297710365419955797
360,1.7198066956096649321140817007674
361,1.7203652902729326315894012567081
362,1.7209223401734046189857969352278
363,1.7214778538396828151521178427547
364,1.7220318397299833806747964440038
365,1.7225843062329100644444373080304
366,1.7231352616682157100375889906322
367,1.7236847142875548119153319361616
368,1.7242326722752239101595325054231
369,1.7247791437488944562839273385619
370,1.7253241367603338632875104518886
371,1.7258676592961175932522707809292
372,1.7264097192783312389569030924044
373,1.7269503245652625662153677368236
374,1.7274894829520878254126979606834
375,1.7280272021715430238015223498959
376,1.7285634898945916147677945234115
377,1.7290983537310803932707055019050
378,1.7296318012303867648608564642078
379,1.7301638398820592280728979279585
380,1.7306944771164478269504656080465
381,1.7312237203053274491332216558954
382,1.7317515767625110876694134345831
383,1.7322780537444577412093697050728
384,1.7328031584508699162741466118626
385,1.7333268980252843528472015252340
386,1.7338492795556566319352512016683
387,1.7343703100749354144265576192220
388,1.7348899965616302480376774360228
389,1.7354083459403736170246689261642
390,1.7359253650824744237562696249272
391,1.7364410608064632190791899446267
392,1.7369554398786327898419370202619
393,1.7374685090135715770531831090716
394,1.7379802748746885057595078536518
395,1.7384907440747320835044570753410
396,1.7389999231763034182237091866878
397,1.7395078186923627854728592215746
398,1.7400144370867297531094136855804
399,1.7405197847745754292083019747213
400,1.7410238681229111331555612140895
401,1.7415266934510695388271027963535
402,1.7420282670311790350567696952552
403,1.7425285950886341241198954525836
404,1.7430276838025597513100030784760
405,1.7435255393062670310401635675459
406,1.7440221676877064784912706500268
407,1.7445175749899158635134703417475
408,1.7450117672114601899627789878074
409,1.7455047503068666615356175428201
410,1.7459965301870571485677288894690
411,1.7464871127197724158013673410651
412,1.7469765037299916936977670418347
413,1.7474647090003486723409617525613
414,1.7479517342715403417656563200588
415,1.7484375852427329626584750060829
416,1.7489222675719615970529823122721
417,1.7494057868765260474920384077536
418,1.7498881487333803678810414813016
419,1.7503693586795202245310974776455
420,1.7508494222123630893009840476083
421,1.7513283447901252170089944113149
422,1.7518061318321946887043670529656
423,1.7522827887194983569254067129768
424,1.7527583207948663066563934335601
425,1.7532327333633902113298717974382
426,1.7537060316927791907013410556031
427,1.7541782210137106552126576372322
428,1.7546493065201761505179636184310
429,1.7551192933698261145462619617495
430,1.7555881866843064091915736901208
431,1.7560559915495941302707250882039
432,1.7565227130163298452481842210136
433,1.7569883561001415966095141034226
434,1.7574529257819717688056557984047
435,1.7579164270083946424259049724362
436,1.7583788646919325365742252641220
437,1.7588402437113687008018904121742
438,1.7593005689120559386438311728068
439,1.7597598451062216440461254952949
440,1.7602180770732703218800813581925
441,1.7606752695600807523787550066968
442,1.7611314272813013631229381117255
443,1.7615865549196434562545760284312
444,1.7620406571261669102686222739972
445,1.7624937385205676870234351644773
446,1.7629458036914581682992491496275
447,1.7633968571966474910528448404269
448,1.7638469035634150995499720626990
449,1.7642959472887853548590997041241
450,1.7647439928397953541267624473210
451,1.7651910446537634627070979345019
452,1.7656371071385514004721820090022
453,1.7660821846728256253527031824547
454,1.7665262816063144030355512638220
455,1.7669694022600641866676961981399
456,1.7674115509266906035422540159484
457,1.7678527318706287444504474469200
458,1.7682929493283791515721882953342
459,1.7687322075087520188058909621066
460,1.7691705105931092468561228088312
461,1.7696078627356022027795176629254
462,1.7700442680634083970141228060945
463,1.7704797306769656816380577484636
464,1.7709142546502021307378477864815
465,1.7713478440307655715961852452148
466,1.7717805028402498973699292939375
467,1.7722122350744174417483629873930
468,1.7726430447034224312060965459828
469,1.7730729356720279915200729468123
470,1.7735019118998242330650175171578
471,1.7739299772814416819662718294080
472,1.7743571356867643546941070125091
473,1.7747833909611378269742719981496
474,1.7752087469255798009795076214497
475,1.7756332073769820935288423334193
476,1.7760567760883165590702912462126
477,1.7764794568088352804141721228410
478,1.7769012532642697031756230551018
479,1.7773221691570276032790117794075
480,1.7777422081663882820750037020347
481,1.7781613739486945399128665528274
482,1.7785796701375449969226382692429
483,1.7789971003439821409713239181780
484,1.7794136681566789225143254431260
485,1.7798293771421253731833059238760
486,1.7802442308448098328688516188236
487,1.7806582327874016340445465847385
488,1.7810713864709298397814737361785
489,1.7814836953749612635162055901679
490,1.7818951629577756335778405293836
491,1.7823057926565400366360250740301
492,1.7827155878874812281329503342102
493,1.7831245520460557845828739714389
494,1.7835326885071191916510438632250
495,1.7839400006250920603785099345793
496,1.7843464917341267158412630927479
497,1.7847521651482698436307175824945
498,1.7851570241616251392715852249711
499,1.7855610720485134577600832931171
500,1.785964312063632593552260781833
501,1.786366747442212436870078022221
502,1.786768381400172961330788709651
503,1.787169217134276510847987655944
504,1.787569257822282229459137381822
505,1.787968506623095481360430570060
506,1.788366966676917991046500496822
507,1.788764641105396551389403026633
508,1.789161533011769939419549989720
509,1.789557645481012270498508350256
510,1.789952981579978843915728823362
511,1.790347544357547710781589298496
512,1.790741336844760864202753904555
513,1.791134362054963667269613491660
514,1.791526622983943195109664041635
515,1.791918122610065865096330360051
516,1.792308863894412565394542484764
517,1.792698849780912356425332399518
518,1.793088083196476530480433254698
519,1.793476567051129811275297327281
520,1.793864304238141550290165046818
521,1.794251297634153714973563815172
522,1.794637550099309944855844286338
523,1.795023064477382112577325037749
