Eigenstate,Potential Energy
1,0.500000000018544567775918692140300455
2,0.64623093777216383826788495261631766
3,0.73633761006054753489207810273706630
4,0.79966527855485344251658273007255287
5,0.8480465765685797466499246717397277
6,0.8870659988554172607539359029350595
7,0.9197208268530790853099880018819772
8,0.9477838469382741114515663400162634
9,0.9723835581171471739491611465436301
10,0.9942802145381872322884119286990321
11,1.0140093863423778322078911665445300
12,1.0319621688343090400613839379137409
13,1.0484326920797585178924790263123248
14,1.0636476537618468802959979894110546
15,1.0777854349952188559291943689290905
16,1.090988905196486080713188470063458
17,1.103374255545730054684968349120961
18,1.115037249992700767855717128817321
19,1.126057748360793808576696106186067
20,1.136503043980986492341818251814330
21,1.146430369773534843356030710789563
22,1.155888809406713602173986340231254
23,1.164920775233340799592873057149053
24,1.173563165691199862718958183653363
25,1.181848282098965971954407377142679
26,1.189804562463793789333530871091082
27,1.197457174443893280122152345886369
28,1.204828498707569542266685068667799
29,1.211938526135174738004376951624661
30,1.218805186660932653504345752299526
31,1.225444623405657912936841281586544
32,1.231871422673492289082681612663822
33,1.238098808076132748792133475852883
34,1.244138805297479605698173755816756
35,1.250002382672438087089512030956095
36,1.255699571720127743461548840223703
37,1.261239570967669580879295265231685
38,1.266630835770302053253044565069012
39,1.271881156335728402197226687601300
40,1.276997725764777048668752447794925
41,1.281987199603706466918061695658134
42,1.286855748148493369828032006613230
43,1.291609102534956689838539786452849
44,1.296252595480475824182653874364474
45,1.300791197405492044190371580764741
46,1.305229548549845685844961564732520
47,1.309571987605525126464554381248123
48,1.313822577309817188149522947651475
49,1.317985127378186064753199442653945
50,1.32206321510208515549157764917619
51,1.32606020389143922584471366528255
52,1.32997926000318910211120421591332
53,1.33382336766484098743791239760275
54,1.33759534277440135569672486396208
55,1.34129784533460288707318096049964
56,1.34493339075925233911080275853659
57,1.34850436017233228183951487354737
58,1.35201300980569143932863175317864
59,1.35546147958840443273237840354806
60,1.35885180100985721219588238804633
61,1.36218590432905023748695240858913
62,1.36546562519431046210715952047239
63,1.36869271073036128661662958684389
64,1.37186882514338716698612742784431
65,1.37499555488919472381826057788521
66,1.37807441344472485922650996846984
67,1.38110684571890809683578255851344
68,1.38409423213509919956035144451505
69,1.38703789241401444908883544849886
70,1.38993908908316670274245268876324
71,1.39279903073619463964199899358316
72,1.39561887506318436573967848756340
73,1.39839973167102854086868639038312
74,1.40114266471104934241099957089362
75,1.40384869532948047908106613239560
76,1.40651880395495391156804660370545
77,1.40915393243583453836133573004376
78,1.41175498603908030690404910826850
79,1.41432283532125839022704857422875
80,1.41685831788140994357175447525622
81,1.41936224000460661403344618739269
82,1.42183537820428052570334839658144
83,1.42427848067072072899818883558218
84,1.42669226863250481114982982746526
85,1.42907743763707508865394654098103
86,1.43143465875615293708744602106737
87,1.43376457972122734290447036903054
88,1.43606782599393038408515986679635
89,1.43834500177572884434988064325103
90,1.44059669096101794892235910311107
91,1.44282345803738175777447756014311
92,1.44502584893649645474638367016075
93,1.44720439183889051587994281259232
94,1.44935959793553281156545854644452
95,1.45149196214899854307259607714118
96,1.45360196381676109192000840702032
97,1.45569006733897351842857816065934
98,1.45775672279293057150848013492256
99,1.45980236651624859954113105875037
100,1.46182742166065441180106308943502
101,1.46383229871814483570823549676610
102,1.46581739602115314048025925218993
103,1.46778310021825058414110814423253
104,1.46972978672680407613249138733270
105,1.47165782016391787401715318268867
106,1.47356755475689646851966483058180
107,1.47545933473438772919485433570054
108,1.47733349469928614345963924433353
109,1.47919035998440738818985200875456
110,1.48103024699188305295861319032620
111,1.48285346351715847279425979714695
112,1.48466030905842719470238187237234
113,1.48645107511228006640242719660896
114,1.48822604545629817797301498679813
115,1.48998549641927843859750740137848
116,1.49172969713973223895317857647482
117,1.49345890981326593678055514806531
118,1.49517338992941087206392842658925
119,1.49687338649843690453774436294453
120,1.49855914226865762399859054343978
121,1.50023089393469711665828363829843
122,1.50188887233716925764076102619240
123,1.50353330265418830679348204780025
124,1.50516440458511190517540265612430
125,1.50678239252688800332045775528151
126,1.50838747574336205507793097223296
127,1.50997985852788023294470245866021
128,1.51155974035950183361448001750537
129,1.51312731605312196923099264161663
130,1.51468277590378725796487090541859
131,1.51622630582547182341587577650221
132,1.51775808748456593514130413480226
133,1.51927829842831784102748867670551
134,1.52078711220845806626241671015172
135,1.52228469850021734532501451637949
136,1.52377122321694566587629773769361
137,1.52524684862052659549397266384300
138,1.52671173342776745020149899101242
139,1.52816603291294375783698354627812
140,1.52960989900666102333904396099226
141,1.53104348039119224553678304223969
142,1.53246692259244156176395488703634
143,1.53388036806867574644812893748615
144,1.53528395629615811018861299211132
145,1.53667782385181515807789844381894
146,1.53806210449305849727037547430890
147,1.53943692923487628083610283405957
148,1.54080242642430951690408818805837
149,1.54215872181241504402520960249296
150,1.54350593862381881360780926180039
151,1.54484419762395539365503542079423
152,1.54617361718408399294858677415947
153,1.54749431334416995534670740837313
154,1.54880639987371562341224928876470
155,1.55010998833061880733698131823341
156,1.55140518811813672549813163653315
157,1.55269210654002646322318280147919
158,1.55397084885393376783643791750598
159,1.5552415183230938527928725298433
160,1.5565042162664105484090847728153
161,1.5577590421069722952823970151729
162,1.5590060934190644414695771946638
163,1.5602454659737326966945705525368
164,1.5614772537829523801502888342175
165,1.5627015491424520620821916713683
166,1.5639184426732421147124280898828
167,1.5651280233618954047940576401749
168,1.5663303785996228166789055010805
169,1.5675255942201886679596659212045
170,1.5687137545367057607719984989983
171,1.5698949423773502631874172647646
172,1.5710692391200342873248815301713
173,1.5722367247260715664818213885311
174,1.5733974777728720747686026123315
175,1.5745515754856995741493148359657
176,1.5756990937685217952117038926756
177,1.5768401072339865121735697970109
178,1.5779746892325526664917557631941
179,1.5791029118808029839893606420833
180,1.5802248460889690318699519925964
181,1.5813405615876913641747074175722
182,1.5824501269540424510376376029705
183,1.5835536096368354409825450652226
184,1.5846510759812429977674213013363
185,1.5857425912527480198691591409961
186,1.5868282196604472111974757682218
187,1.5879080243797313035047787972421
188,1.5889820675743573667757112580000
189,1.5900504104179369386531710132582
190,1.5911131131148556239445195898098
191,1.5921702349206433867254670767384
192,1.5932218341618119172095202656633
193,1.5942679682551773771953351496210
194,1.5953086937266818648383098616765
195,1.5963440662297315310683142818270
196,1.5973741405630650395160523981189
197,1.5983989706881667452311651812874
198,1.5994186097462387541330036695735
199,1.6004331100747446970094239992231
200,1.6014425232235391582243374328890
201,1.6024468999705937355127076175244
202,1.6034462903373331069740631137427
203,1.6044407436035917599463532050961
204,1.6054303083222029966215135747826
205,1.6064150323332301817145034153658
206,1.6073949627778532508825575601890
207,1.6083701461119163505199286802962
208,1.6093406281191508303325361621986
209,1.6103064539240793315198879821845
210,1.6112676680046124661630990325380
211,1.6122243142043454467752048285221
212,1.6131764357445648931356257341096
213,1.6141240752359701942964813208769
214,1.6150672746901244014440979898329
215,1.6160060755306338578401152829258
216,1.6169405186040705202924684848167
217,1.6178706441906409311914346255756
218,1.6187964920146108135533696395429
219,1.6197181012544885620007723349972
220,1.6206355105529801377989848314842
221,1.6215487580267132702318312666684
222,1.6224578812757481616740155115817
223,1.6233629173928682571836799571035
224,1.6242639029726661379054339364757
225,1.6251608741204270948184411247615
226,1.6260538664608139207622767231813
227,1.6269429151463615635789042220015
228,1.6278280548657834505618664658436
229,1.6287093198520966363477298735881
230,1.6295867438905704604779117067515
231,1.6304603603265005038849882478149
232,1.6313302020728182532078047104660
233,1.6321963016175314584232813105708
234,1.6330586910310113298440060423900
235,1.6339174019731197455647830312226
236,1.6347724657001861681093605248372
237,1.6356239130718378903869101577708
238,1.6364717745576853419516879166503
239,1.6373160802438678911277418493661
240,1.6381568598394622963970170585954
241,1.6389941426827580883803873462972
242,1.6398279577474027383422099779647
243,1.6406583336484206439715613132934
244,1.6414852986481076206559706730593
245,1.6423088806618052713377513686407
246,1.6431291072635577534995695577389
247,1.6439460056916523250436066560894
248,1.6447596028540512495970892414766
249,1.6455699253337100297381747935098
250,1.6463769993937923522412236980598
251,1.6471808509827796447466824926422
252,1.6479815057394780417486930958410
253,1.6487789889979278314968258713948
254,1.6495733257922150400620871125180
255,1.6503645408611890319897888511921
256,1.6511526586530862122991293284124
257,1.6519377033300662205669407471940
258,1.6527196987726570611473538454526
259,1.6534986685841159723709341550713
260,1.6542746360947064204206312029628
261,1.6550476243658915309347150705339
262,1.6558176561944486830615986648138
263,1.6565847541165041158463161857569
264,1.6573489404114929970993960876502
265,1.6581102371060434792733201522238
266,1.6588686659777869093766137210256
267,1.6596242485590974054550247113220
268,1.6603770061407608326363685379940
269,1.6611269597755774479355865090582
270,1.6618741302818939372416299774889
271,1.6626185382470741277198158838966
272,1.6633602040309023544709100645126
273,1.6640991477689269238384224143499
274,1.6648353893757408816584174350989
275,1.6655689485482039613081408215328
276,1.6662998447686039891823732195548
277,1.6670280973077652308880409278187
278,1.6677537252280954320810495926208
279,1.6684767473865830563904524638643
280,1.6691971824377368132757301729194
281,1.6699150488364753646207966208943
282,1.6706303648409647063130246609388
283,1.6713431485154064372339246115708
284,1.6720534177327740721768374545218
285,1.6727611901775042059322155843146
286,1.6734664833481385532660567570360
287,1.6741693145599219240626093665756
288,1.6748697009473525353874209378561
289,1.6755676594666893085150700486388
290,1.6762632068984168834287225860414
291,1.6769563598496661917120430742561
292,1.6776471347565934727196911885483
293,1.6783355478867216387813373343729
294,1.6790216153412390263333509268142
295,1.6797053530572576201032190245773
296,1.6803867768100383358864168328186
297,1.6810659022151732936204493575028
298,1.6817427447307343974872867501965
299,1.6824173196593850258791756514392
300,1.6830896421504565818108225291606
301,1.6837597272019903151928738985612
302,1.6844275896627465098767559562103
303,1.6850932442341782085765132519999
304,1.6857567054723730531742080161563
305,1.6864179877899646689124744557517
306,1.6870771054580128556708689911041
307,1.6877340726078497682762681331137
308,1.6883889032328995642729907647995
309,1.6890416111904676084148907170555
310,1.6896922102034995690226587198189
311,1.6903407138623140011062851561879
312,1.6909871356263059293817007666751
313,1.6916314888256228239275995057512
314,1.6922737866628147727528277045926
315,1.6929140422144581709141823959419
316,1.6935522684327543018237056296177
317,1.6941884781471003493470968181198
318,1.6948226840656381919352819606864
319,1.6954548987767781203480596871174
320,1.6960851347506974802248040116206
321,1.6967134043408181584335802018366
322,1.6973397197852590276263611786264
323,1.6979640932082668630365785935335
324,1.6985865366216247086552041379260
325,1.6992070619260394547635798128026
326,1.6998256809125068640459232993955
327,1.7004424052636568670341051272333
328,1.7010572465550763160762410705801
329,1.7016702162566141726838674339102
330,1.7022813257336655599212008353939
331,1.7028905862484361184088385902571
332,1.7034980089611877271627740338538
333,1.7041036049314659678031295513724
334,1.7047073851193075161345842369316
335,1.7053093603864317760097338060020
336,1.7059095414974128135059671008877
337,1.7065079391208344636401791273172
338,1.7071045638304296684518651294630
339,1.7076994261062001109404194205377
340,1.7082925363355222361752480764528
341,1.7088839048142353731346631324340
342,1.7094735417477144544016996198307
343,1.7100614572519269714843067764573
344,1.7106476613544741594454045512289
345,1.7112321639956182301553694044418
346,1.7118149750292931289402064250487
347,1.7123961042241023799623595286634
348,1.7129755612643008320365093279667
349,1.7135533557507638497833008646636
350,1.7141294972019414924399716779529
351,1.7147039950547997679100364570838
352,1.7152768586657486443960012874330
353,1.7158480973115561039717278852710
354,1.7164177201902496525500534326220
355,1.7169857364220056515082967666314
356,1.7175521550500246807395714754726
357,1.7181169850413961721542015241971
358,1.7186802352879515576178777398257
359,1.7192419146071016764512754618499
360,1.7198020317426673803967412613740
361,1.7203605953656950809072920104697
362,1.7209176140752637203447814983705
363,1.7214730963992777626874433621283
364,1.7220270507952512277277967245809
365,1.7225794856510810051158272990937
366,1.7231304092858083259047177194764
367,1.7236798299503712835979518539346
368,1.7242277558283451934148347946006
369,1.7247741950366754223088901671979
370,1.7253191556263984029031338775876
371,1.7258626455833536846408384660342
372,1.7264046728288859786203148861467
373,1.7269452452205371628187274038971
374,1.7274843705527325561745950761295
375,1.7280220565574521530881158711276
376,1.7285583109048982745452559186836
377,1.7290931412041514250659153577799
378,1.7296265550038175228777561930198
379,1.7301585597926683431073031198748
380,1.7306891630002719307430447759375
381,1.7312183719976158587965236490226
382,1.7317461940977204498208289581709
383,1.7322726365562466354382063255126
384,1.7327977065720934175672119025716
385,1.7333214112879885525932767351474
386,1.7338437577910731171248685584809
387,1.7343647531134757046596938044629
388,1.7348844042328801899473111309386
389,1.7354027180730877357210127118268
390,1.7359197015045702308914843245252
391,1.7364353613450154771284891292308
392,1.7369497043598677321928968431922
393,1.7374627372628610834904830716869
394,1.7379744667165442329282528381441
395,1.7384848993327995499303904909605
396,1.7389940416733560434648254007337
397,1.7395019002502958829715894906542
398,1.7400084815265544763109330471715
399,1.7405137919164126705049486970052
400,1.7410178377859853752131118376165
401,1.7415206254537026578442159390268
402,1.7420221611907840555034403208813
403,1.7425224512217089244964971898606
404,1.7430215017246807204631951345856
405,1.7435193188320826745671718144011
406,1.7440159086309309747588032493960
407,1.7445112771633225688129259815830
408,1.7450054304268750923173767234566
409,1.7454983743751617826709019552834
410,1.7459901149181438935505951180703
411,1.7464806579225948698483736181969
412,1.7469700092125198656471361984130
413,1.7474581745695716842780497028142
414,1.7479451597334595642853363055375
415,1.7484309704023550952429853536458
416,1.7489156122332916930374097137613
417,1.7493990908425604830844782687128
418,1.7498814118060997546981606280120
419,1.7503625806598822651041462724072
420,1.7508426029002953750012542795857
421,1.7513214839845179678357006031632
422,1.7517992293308934343717735235904
423,1.7522758443192965586798372707461
424,1.7527513342914979192474740289349
425,1.7532257045515221845539487651859
426,1.7536989603660039099284833871376
427,1.7541711069645383203024112012012
428,1.7546421495400270925222981046909
429,1.7551120932490230495910175687383
430,1.7555809432120666289217966275479
431,1.7560487045140216282376974362224
432,1.7565153822044073786091535355434
433,1.7569809812977226825045438480204
434,1.7574455067737726147680259091307
435,1.7579089635779860101762195111343
436,1.7583713566217315385404045797831
437,1.7588326907826305287000676683460
438,1.7592929709048655234478078674667
439,1.7597522017994852466648950194384
440,1.7602103882447070538561949951280
441,1.7606675349862140259113348065621
442,1.7611236467374502697125221066460
443,1.7615787281799140732574963070365
444,1.7620327839634435346421290109333
445,1.7624858187065039955334988384090
446,1.7629378369964683034547212263444
447,1.7633888433898970720218619045860
448,1.7638388424128121573053128293430
449,1.7642878385609711907909364534615
450,1.7647358363001353213523891211025
451,1.7651828400663376692983530594697
452,1.7656288542661453338122533821603
453,1.7660738832769206968251474700248
454,1.7665179314470784122386514197893
455,1.7669610030963417043384767487331
456,1.7674031025159932723647852677615
457,1.7678442339691254969134819139820
458,1.7682844016908863440311409662026
459,1.7687236098887234808951642738375
460,1.7691618627426262453870209951682
461,1.7695991644053633192492331157415
462,1.7700355190027193178408463716523
463,1.7704709306337289002271820388984
464,1.7709054033709065604736218088582
465,1.7713389412604760688422314968780
466,1.7717715483225966935517900732049
467,1.7722032285515854835797426789368
468,1.7726339859161406281095568434966
469,1.7730638243595583692822542717832
470,1.7734927477999509927541517588628
471,1.7739207601304601631287912016284
472,1.7743478652194699018354923936428
473,1.7747740669108145583170586049288
474,1.7751993690239892784798456222673
475,1.7756237753543518931201649676906
476,1.7760472896733287400911850091349
477,1.7764699157286147531642544365190
478,1.7768916572443724935308367538328
479,1.7773125179214290132852296870852
480,1.7777325014374709454251604738561
481,1.7781516114472363712001263444274
482,1.7785698515827070335486568659103
483,1.7789872254532962765749619106850
484,1.7794037366460355307722874665756
485,1.7798193887257608208206492803607
486,1.7802341852352938807030107830769
487,1.7806481296956247248717478114016
488,1.7810612256060902719006271076459
489,1.7814734764445522486701115426747
490,1.7818848856675722380768455349508
491,1.7822954567105860044138921883068
492,1.7827051929880756844695525992210
493,1.7831140978937398192128600358056
494,1.7835221748006623199615938343115
495,1.7839294270614785613833683330955
496,1.7843358580085418456020560819792
497,1.7847414709540859227800019851241
498,1.7851462691903875132756793889043
499,1.7855502559899263285422843300422
500,1.785953434605544721080403974854
501,1.786355808270602709294763738209
502,1.786757380199135832243118044654
503,1.787158153586007302206992970208
504,1.787558131607062298722594441146
505,1.787957317419277251332240111498
506,1.788355714160909840936912150376
507,1.788753324951647567564421663312
508,1.789150152892754524296899093081
509,1.789546201067214608027899983387
510,1.789941472539877220062353977050
511,1.790335970357598687409965845798
512,1.790729697549383304739112769861
513,1.791122657126522612500215811831
514,1.791514852082733587450657745490
515,1.791906285394296119650852280552
516,1.792296960020187986089710580584
517,1.792686878902218395501342337046
518,1.793076044965161889580689345872
519,1.793464461116889382364896986052
520,1.793852130248499194606595696157
521,1.794239055234444878190519109333
522,1.794625238932664106617881558851
523,1.795010684184705068538607111963
