Eigenstate,Potential Energy
1,0.500000000015495934655234249384691389
2,0.64623093775226397508630501460701167
3,0.73633761000209340686738333482945941
4,0.79966527843310049465326424054959344
5,0.8480465763576794459638786475183119
6,0.8870659985290691511172034567455154
7,0.9197208263847711588029848057522351
8,0.9477838463013831636677487084963176
9,0.9723835572849855708255127941043708
10,0.9942802134840267398660565055079501
11,1.0140093850394626487293654593845848
12,1.0319621672558633258014590582048668
13,1.0484326901989909295921197605650007
14,1.0636476515519533817975919575957050
15,1.0777854324293844889327941319505745
16,1.090988902247886082387207702808733
17,1.103374252187530550468176431275709
18,1.115037246198059179425066454712081
19,1.126057744102859065657728443314671
20,1.136503039232899106194516636681807
21,1.146430364508426880637735556136320
22,1.155888803597708585681079273606900
23,1.164920768853553554407318429276312
24,1.173563158713736320953719140148904
25,1.181848274496922945654001255056655
26,1.189804554210258718558012187496325
27,1.197457165511943961456246424405772
28,1.204828489070273841713594271438594
29,1.211938515765590291290434166229415
30,1.218805175532106556132354998371926
31,1.225444611490626401812136765054820
32,1.231871409945280417148090476544809
33,1.238098794507754053812200485789919
34,1.244138790861935774105168488113522
35,1.250002367342718613626670263323047
36,1.255699555469209587220218836288168
37,1.261239553768516818217015057149037
38,1.266630817595865527992308844045277
39,1.271881137158945373434752435450881
40,1.276997705558570836468606750004387
41,1.281987178340986096116196692835684
42,1.286855725802153212138339413781863
43,1.291609079077876104419796099808876
44,1.296252570885518796800346944499078
45,1.300791171645506825086335889383800
46,1.305229521597664426410180674562417
47,1.309571959433963514795778393290786
48,1.313822547891674083557965998554893
49,1.317985096686243131283123721889955
50,1.32206318310910649449770055787777
51,1.32606017057017100766981251961408
52,1.32997922532635919689884222884101
53,1.33382333160515859510966983117950
54,1.33759530530455663511855195329585
55,1.34129780642726658443137404297453
56,1.34493335038707541551454154479669
57,1.34850431830794554016380540245448
58,1.35201296642170515030879022889638
59,1.35546143465740796031884443944858
60,1.35885175450441863817607851313157
61,1.36218585622171598537908984100874
62,1.36546557545760492032928918014457
63,1.36869265933678643093282347545344
64,1.37186877206542218223043019737975
65,1.37499550009929562489592509577942
66,1.37807435691532411139105194602030
67,1.38110678742241423523950366628861
68,1.38409417204389644807518864488675
69,1.38703783050046233839368038935433
70,1.38993902531959968767246147726092
71,1.39279896509492171579481999363822
72,1.39561880751648868533303033350199
73,1.39839966219116702784322135562246
74,1.40114259327025230677198854576244
75,1.40384862189995123047203019214377
76,1.40651872850886837206912134577390
77,1.40915385494534085450482686509243
78,1.41175490647629846089934655433244
79,1.41432275365827981038677632270971
80,1.41685823409029711393079936814404
81,1.41936215405739268315227393037733
82,1.42183529007296891464679372134631
83,1.42427839032728473848071453544105
84,1.42669217604888722783805885383214
85,1.42907734278518779061709336082492
86,1.43143456160787649838612985797840
87,1.43376448024841063730821272803269
88,1.43606772416839018790874551326182
89,1.43834489756924943839862268009800
90,1.44059658434535071953617138842966
91,1.44282334898424479696054585448586
92,1.44502573741757415939010499929988
93,1.44720427782583318602369488620188
94,1.44935948139995624774465366086095
95,1.45149184306248364269836651079036
96,1.45360184215085344469779322628021
97,1.45568994306518300080175587776265
98,1.45775659588273094011613110577944
99,1.45980223694107708367890254736475
100,1.46182728939191130487403561112881
101,1.46383216372719308566460251320249
102,1.46581725827931793921455027777253
103,1.46778295969681895585561546956136
104,1.46972964339702446464545677861407
105,1.47165767399699972900622513357833
106,1.47356740572400983068904397334882
107,1.47545918280666281435447229814996
108,1.47733333984781292550464652587990
109,1.47919020218023518096861960537526
110,1.48103008620602009101737228794489
111,1.48285329972057149098644426006417
112,1.48466014222204100665065819052411
113,1.48645090520697714180133628960569
114,1.48822587245291821872007248973548
115,1.48998532028861795374054043001266
116,1.49172951785254411844161562908079
117,1.49345872734025902400831182063722
118,1.49517320424124953519145414009948
119,1.49687319756574060658074886942772
120,1.49855895006200049167087546977453
121,1.50023069842460750795605392407112
122,1.50188867349412932815571090710867
123,1.50353310044863357474189114707887
124,1.50516419898743081513039563116256
125,1.50678218350742148863452510445483
126,1.50838726327240309898273018298488
127,1.50997964257567342831509778940899
128,1.51155952089624294138369179021139
129,1.51312709304895747544367286706631
130,1.51468254932881392945485091310315
131,1.51622607564973626209524707389728
132,1.51775785367806413088742731151572
133,1.51927806096099472315447406076985
134,1.52078687105020705356350513340494
135,1.52228445362087989467224323880955
136,1.52377097458631081936377684803435
137,1.52524659620833052611097575636770
138,1.52671147720369300602154020560493
139,1.52816577284662000470896542366236
140,1.52960963506766278606646463166849
141,1.53104321254903964753095173233814
142,1.53246665081659956315705032775370
143,1.53388009232855368065188732960742
144,1.53528367656110921888433465812512
145,1.53667754009113612462339275430120
146,1.53806181667598897850938267671297
147,1.53943663733059843729564141121845
148,1.54080213040194754136511367179789
149,1.54215842164103468845187655584568
150,1.54350563427242691442052751224895
151,1.54484388906149939533249647792777
152,1.54617330437945146994377009513890
153,1.54749399626618813230180005459448
154,1.54880607849115089365743014903441
155,1.55010966261217624965778738948319
156,1.55140485803245961915614369232081
157,1.55269177205569580121463473899856
158,1.55397050993946776837326260278302
159,1.5552411749469474689906436291127
160,1.5565038683969749761661885055859
161,1.5577586897125744793346917446061
162,1.5590057364679665796046841962765
163,1.5602451044341317421099004287785
164,1.5614768876229795419387671930066
165,1.5627011783301723038295345150289
166,1.5639180671766536511897997322893
167,1.5651276431489291967297891401740
168,1.5663299936381420635928402813121
169,1.5675252044779882990436699188407
170,1.5687133599815119238000027205085
171,1.5698945429768198114382977395503
172,1.5710688348417542645013674197071
173,1.5722363155375586896085504198436
174,1.5733970636415722150522703161095
175,1.5745511563789872357838602901627
176,1.5756986696536995921112733419815
177,1.5768396780782846426159587047105
178,1.5779742550031283856548902158859
179,1.5791024725447400743632925321388
180,1.5802244016132772715267103103791
181,1.5813401119393059928782621888664
182,1.5824496720998236341761181793934
183,1.5835531495435677313047180689100
184,1.5846506106156347949053577622684
185,1.5857421205814310276288697496939
186,1.5868277436499758925992178108929
187,1.5879075429965823335545885159328
188,1.5889815807849290829496185511674
189,1.5900499181885487890754224412736
190,1.5911126154117476132410324678330
191,1.5921697317099755195335912197014
192,1.5932213254096636393250971804043
193,1.5942674539275470143378816140131
194,1.5953081737894860590150777917853
195,1.5963435406488046745178055195601
196,1.5973736093041587062114732156085
197,1.5983984337169491199241577969843
198,1.5994180670282940589179028489529
199,1.6004325615755726153880690530413
200,1.6014419689085542566514715938669
201,1.6024463398051248824017318198382
202,1.6034457242866228891428631933509
203,1.6044401716327958964827590996377
204,1.6054297303963897501478007484329
205,1.6064144484173797670302474970724
206,1.6073943728368572409649594144606
207,1.6083695501105770798606463187465
208,1.6093400260221807955898614654294
209,1.6103058456961005894650132727943
210,1.6112670536101560288990581501380
211,1.6122236936078506742069010456842
212,1.6131758089103788826692652884646
213,1.6141234421283471677465427653584
214,1.6150666352732250891258237685768
215,1.6160054297685248798253791678269
216,1.6169398664607237648067127815917
217,1.6178699856299329301291990813709
218,1.6187958270003221150898184696496
219,1.6197174297503031002764233707736
220,1.6206348325224845996547318280302
221,1.6215480734333964589711620149873
222,1.6224571900830003578291711731506
223,1.6233622195639805762623523703780
224,1.6242631984708298850944411144974
225,1.6251601629087331166205868051915
226,1.6260531485022519535425578306413
227,1.6269421904038195789959435637892
228,1.6278273233020469978603496142033
229,1.6287085814298481814874230791597
230,1.6295859985723887220746676305769
231,1.6304596080748597859389918770529
232,1.6313294428500877745941196960581
233,1.6321955353859746791195440397926
234,1.6330579177527852738700244289953
235,1.6339166216102743206085523634583
236,1.6347716782146634818138033772350
237,1.6356231184254715632715152841420
238,1.6364709727121998169430444718857
239,1.6373152711608777396727108522140
240,1.6381560434804715211321616172611
241,1.6389933190091594223310218148677
242,1.6398271267204769406243457963758
243,1.6406574952293357919696925436829
244,1.6414844527979183986495514396930
245,1.6423080273414522555489905735958
246,1.6431282464338666935349207351025
247,1.6439451373133334217012105963953
248,1.6447587268876984290121377626796
249,1.6455690417398002138380498440914
250,1.6463761081326847254819542302428
251,1.6471799520147149171021305254865
252,1.6479805990245777079236527879579
253,1.6487780744961934263349832844573
254,1.6495724034635273901195722550660
255,1.6503636106653075032448688882052
256,1.6511517205496479539683232373004
257,1.6519367572785854049976473464377
258,1.6527187447325241197568747018784
259,1.6534977065145968276014842075982
260,1.6542736659549417136797792609371
261,1.6550466461148958464903727619283
262,1.6558166697911097678605718442672
263,1.6565837595195820952250427142101
264,1.6573479375796195863554107169492
265,1.6581092259977211910656374393290
266,1.6588676465513882569230008853792
267,1.6596232207728641014939457002711
268,1.6603759699528029841210634257192
269,1.6611259151438727464275574218270
270,1.6618730771642868449705001807525
271,1.6626174766012750592763235154033
272,1.6633591338144868540995584713660
273,1.6640980689393348382959131844121
274,1.6648343018902755286039487529615
275,1.6655678523640312931912341927402
276,1.6662987398427517525936243620600
277,1.6670269835971221213380199902457
278,1.6677526026894102441722599040210
279,1.6684756159764638293468977796301
280,1.6691960421126499717945408432945
281,1.6699138995527448550099210173604
282,1.6706292065547711278787971051758
283,1.6713419811827861688820175932744
284,1.6720522413096183941898407145540
285,1.6727600046195584168867266057796
286,1.6734652886110010820519673372098
287,1.6741681105990434369669187023901
288,1.6748684877180350382046221642790
289,1.6755664369240852436458488520805
290,1.6762619749975282219284451751010
291,1.6769551185453435202501037387533
292,1.6776458840035350754106906696395
293,1.6783342876394725738484563657371
294,1.6790203455541901975641302774073
295,1.6797040736846448430577129859721
296,1.6803854878059413988172921756502
297,1.6810646035335150130641830531989
298,1.6817414363252796684854209611264
299,1.6824160014837398667882485023572
300,1.6830883141580671736591097978696
301,1.6837583893461420355420305910259
302,1.6844262418965629611456696109403
303,1.6850918865106202407848450415352
304,1.6857553377442377810624733535197
305,1.6864166100098844833950175901110
306,1.6870757175784544295780259747145
307,1.6877326745811130563415801209895
308,1.6883874950111167973208466800445
309,1.6890401927256022817037043040999
310,1.6896907814473454246983973707646
311,1.6903392747664940047205859962383
312,1.6909856861422712404286668121125
313,1.6916300289046517603527656778222
314,1.6922723162560117693876510295205
315,1.6929125612727527317888259317541
316,1.6935507769068999463104837232672
317,1.6941869759876735520868033004971
318,1.6948211712230373164980090967197
319,1.6954533752012223465796606724095
320,1.6960836003922257252299478533942
321,1.6967118591492879911458807096193
322,1.6973381637103455769154743831719
323,1.6979625261994617193020393519937
324,1.6985849586282348188561326189243
325,1.6992054728971860108329308751891
326,1.6998240807971241846378229223717
327,1.7004407940104912725520544446691
328,1.7010556241126849969295674355017
329,1.7016685825733640507197178938372
330,1.7022796807577321429783857979677
331,1.7028889299278023479398113031563
332,1.7034963412436428188694348565719
333,1.7041019257646042452315695327678
334,1.7047056944505272371735485445575
335,1.7053076581629339522372177314940
336,1.7059078276662000223275715447712
337,1.7065062136287096531626572298496
338,1.7071028266239949550347056096149
339,1.7076976771318555693678628779729
340,1.7082907755394646823904730424733
341,1.7088821321424571394777053690030
342,1.7094717571460021572917965997344
343,1.7100596606658602714871865165059
344,1.7106458527294245136652406608837
345,1.7112303432767476368907784934811
346,1.7118131421615528645431884258983
347,1.7123942591522317278382940291329
348,1.7129737039328258037231184467293
349,1.7135514861039958980457105693556
350,1.7141276151839762163185268901260
351,1.7147021006095156096570389569414
352,1.7152749517368055782369023875897
353,1.7158461778423943166257888907504
354,1.7164157881240882154448709575893
355,1.7169837917018411846221175587895
356,1.7175501976186300080047204848979
357,1.7181150148413189683541804239962
358,1.7186782522615129867103284451992
359,1.7192399186963950212484079889066
360,1.7198000228895566635340132482922
361,1.7203585735118136770306908196314
362,1.7209155791620129594464932091831
363,1.7214710483678255245187839853924
364,1.7220249895865305272181194985997
365,1.7225774112057885687249482950992
366,1.7231283215444031588363379589258
367,1.7236777288530732278002707171852
368,1.7242256413151334762945222709936
369,1.7247720670472871960834465272730
370,1.7253170141003272745163638897392
371,1.7258604904598482361651721229193
372,1.7264025040469482780691899994319
373,1.7269430627189212652917047993152
374,1.7274821742699429952568102235889
375,1.7280198464317424224253699434923
376,1.7285560868742692995151108272298
377,1.7290909032063500244643863573795
378,1.7296243029763348605407171588130
379,1.7301562936727383693848244237086
380,1.7306868827248698137441703109965
381,1.7312160775034564053210822368258
382,1.7317438853212565158946124461216
383,1.7322703134336675263665057367770
384,1.7327953690393232774213022487855
385,1.7333190592806847430435399453664
386,1.7338413912446245855334513789912
387,1.7343623719630013413448452926429
388,1.7348820084132271745307193708272
389,1.7354003075188298724687431246989
390,1.7359172761500062729580068048559
391,1.7364329211241674396128273002219
392,1.7369472492064791939149956398149
393,1.7374602671103954773947723542360
394,1.7379719814981831250209651829205
395,1.7384823989814409066559744093235
396,1.7389915261216124874260436439239
397,1.7394993694304929368971443532913
398,1.7400059353707287951733922710099
399,1.7405112303563102616907898854126
400,1.7410152607530598066461659094973
401,1.7415180328791132539625011073034
402,1.7420195530053940809883205506868
403,1.7425198273560837556529037295950
404,1.7430188621090860041477389342012
405,1.7435166633964824745607726352694
406,1.7440132373049859054790835957444
407,1.7445085898763879162608408640830
408,1.7450027271079989221513113273556
409,1.7454956549530830353008774478811
410,1.7459873793212904661438376098055
411,1.7464779060790816851365327978162
412,1.7469672410501469274247102462210
413,1.7474553900158221194801388699448
414,1.7479423587154976515320379979053
415,1.7484281528470242797365634654667
416,1.7489127780671125876973936556093
417,1.7493962399917288558046358359673
418,1.7498785441964845016083796139282
419,1.7503596962170233697187898363399
420,1.7508397015494018531348786376199
421,1.7513185656504657981656035033381
422,1.7517962939382234745256630479572
423,1.7522728917922124467261047166917
424,1.7527483645538639604637207464395
425,1.7532227175268612233489561467945
426,1.7536959559774951867912361352768
427,1.7541680851350153136504967409456
428,1.7546391101919753453209658265022
429,1.7551090363045779806129265210477
430,1.7555778685930113285161202639463
431,1.7560456121417846384761127072904
432,1.7565122720000604576748241661237
433,1.7569778531819785531889380711921
434,1.7574423606669826969393214412184
435,1.7579057994001381370813826345524
436,1.7583681742924476568019209156325
437,1.7588294902211643818669259384897
438,1.7592897520301003189587274077293
439,1.7597489645299313060808523278756
440,1.7602071324984994462175868033602
441,1.7606642606811101840736865255983
442,1.7611203537908275895132864580438
443,1.7615754165087674953652328748993
444,1.7620294534843831089375157579289
445,1.7624824693357524278704986086001
446,1.7629344686498584846484289685720
447,1.7633854559828695889084296354398
448,1.7638354358604127857173056613803
449,1.7642844127778483702904614444502
450,1.7647323912005376115623093708735
451,1.7651793755641111876707046531672
452,1.7656253702747311746711786063265
453,1.7660703797093523315198556646341
454,1.7665144082159790702409539148931
455,1.7669574601139217351168483083574
456,1.7673995396940474878659488185536
457,1.7678406512190304944806371440476
458,1.7682807989235978095861433434732
459,1.7687199870147734722102035508238
460,1.7691582196721204552698669838297
461,1.7695955010479783184638683890328
462,1.7700318352676997775841818105430
463,1.7704672264298847939801231818001
464,1.7709016786066103450431258812269
465,1.7713351958436598444093285752417
466,1.7717677821607493425384856455905
467,1.7721994415517497881458089680438
468,1.7726301779849103660884167195365
469,1.7730599954030753883631068602369
470,1.7734888977239022627155312678983
471,1.7739168888400748059270144701786
472,1.7743439726195161993490826046971
473,1.7747701529055969375462470955761
474,1.7751954335173452739985369829575
475,1.7756198182496490865754896902469
476,1.7760433108734616765432807527442
477,1.7764659151360018340575917490337
478,1.7768876347609528460853650355948
479,1.7773084734486593360941391471674
480,1.7777284348763223300435273131686
481,1.7781475226981910995065492325255
482,1.7785657405457553506596412574334
483,1.7789830920279331390896894716086
484,1.7793995807312573301230855362694
485,1.7798152102200620815019238613141
486,1.7802299840366639331494197833011
487,1.7806439057015443527534972033822
488,1.7810569787135283336020225291117
489,1.7814692065499622727142321166052
490,1.7818805926668889922576023815482
491,1.7822911404992220383934477610000
492,1.7827008534609178455972137213372
493,1.7831097349451457413182947751641
494,1.7835177883244568848734037258478
495,1.7839250169509503329207381422998
496,1.7843314241564394757849210073479
497,1.7847370132526145300003721592426
498,1.7851417875312050321701796226397
499,1.7855457502641398313027972185994
500,1.785948904703706709937658720175
501,1.786351254082707379906030609062
502,1.786752801614615307712819309055
503,1.787153550493727837466360479417
504,1.787553503895320454990836004218
505,1.787952664975796040379481010640
506,1.788351036872834838865724433734
507,1.788748622705542997823915686662
508,1.789145425574599309640204290665
509,1.789541448562398391120637770175
510,1.789936694733196352447030232824
511,1.790331167133252186527416965482
512,1.790724868790968778705393515680
513,1.791117802717032152333591797150
514,1.791509971904549626440657867784
515,1.791901379329187259557520521764
516,1.792292027949304789857954121352
517,1.792681920706089146171929138252
518,1.793071060523688315075887050229
519,1.793459450309342345823261839826
520,1.793847092953514349937816212678
521,1.794233991330018290517935452040
522,1.794620148296147837272028569145
523,1.795005566692802724262217209297
