Eigenstate,Potential Energy
1,0.500000000093417680515570667332120745
2,0.64623093826089805024732118933283269
3,0.73633761149617192135701125962715007
4,0.79966528154511530294623756735268546
5,0.8480465817483697685057360879551618
6,0.8870660068707657207783570042225447
7,0.9197208383552628296688023815698388
8,0.9477838625813622799482809426070687
9,0.9723835785568630442296871102797560
10,0.9942802404313333985933704586852647
11,1.0140094183465265801712251721955260
12,1.0319622076076278652282797079393466
13,1.0484327382809092208419642170496156
14,1.0636477080499270091160606261925982
15,1.0777854980297287000081154413043566
16,1.090988977637311718639278356313427
17,1.103374338053136849242169371271615
18,1.115037343227333871273956459887618
19,1.126057852983683501070508979645743
20,1.136503160653556934500700888605554
21,1.146430499157615292818842172230115
22,1.155888952164551444655413218818914
23,1.164920932027615940216610664936816
24,1.173563337185040154573364236973616
25,1.181848468955963448134713669947095
26,1.189804765348021526826639126061826
27,1.197457394019922767772779616276752
28,1.204828735640488456558992736708804
29,1.211938781090605053320645226110261
30,1.218805460305049030432089894238524
31,1.225444916405206320819215639379565
32,1.231871735695808828536785992726679
33,1.238099141789162647189692756963834
34,1.244139160369796364203053052190289
35,1.250002759773262762199766714373102
36,1.255699971519348349416573385946691
37,1.261239994135860601990092882793107
38,1.266631282978744057361495377324453
39,1.271881628256427748192918883651546
40,1.276998223070485682383006737262802
41,1.281987722967941800845060236498657
42,1.286856298245558243047286353749817
43,1.291609680039959405273078997821633
44,1.296253201069350260955892803189456
45,1.300791831755017843367355188070432
46,1.305230212337668508280677723061521
47,1.309572681510176981848865938212684
48,1.313823302010736834648242539782636
49,1.317985883555739478907567675380971
50,1.32206400343758607226226332899893
51,1.32606102506716974887836953973881
52,1.32998011470242038447239923107455
53,1.33382425657185398319170465176958
54,1.33759626657450764285091863787185
55,1.34129880471416556249705108478815
56,1.34493438640570698614154850717207
57,1.34850539277420801137071302415941
58,1.35201408005263200524871834933978
59,1.35546258817118942264610296849606
60,1.35885294862042331442021564238576
61,1.36218709166051258536507773846699
62,1.36546685294098405673144626057781
63,1.36869397958778249909408844837938
64,1.37187013580833532141872464251889
65,1.37499690805971376220627806033974
66,1.37807580982014508953579000094554
67,1.38110828599986802550005017100464
68,1.38409571702356744971805801422588
69,1.38703942261331176588055653994064
70,1.38994066529798804701920594283992
71,1.39280065367263137145892789908326
72,1.39562054542874651903117444422455
73,1.39840145017466719072276934421053
74,1.40114443206317906638075749911306
75,1.40385051224200191399083756943481
76,1.40652067114127640729064431669551
77,1.40915585061089891006125212513345
78,1.41175695591938168725938497162010
79,1.41432485762486918316050512996104
80,1.41686039332800288103795125817005
81,1.41936436931547791742705863631541
82,1.42183756210237317346908169541452
83,1.42428071988064783204003020504262
84,1.42669456388057309765355269402888
85,1.42907978965130849995307024285875
86,1.43143706826631633621888888669429
87,1.43376704745885033751662163444717
88,1.43607035269233126537705886250123
89,1.43834758817003864373640152781594
90,1.44059933778820461413646305252579
91,1.44282616603627445013418568565911
92,1.44502861884780996933000301882950
93,1.44720722440524982637004637523472
94,1.44936249390149774153830921371530
95,1.45149492226108856552664036757032
96,1.45360498882348025885374158804391
97,1.45569315799083552229532711283524
98,1.45775987984248394039237059463872
99,1.45980559071810202791641072708108
100,1.46183071377150222875394059248884
101,1.46383565949679261251847892555483
102,1.46582082622854343947753361915085
103,1.46778660061748885076901168960908
104,1.46973335808318467617217366772508
105,1.47166146324495027794024095028568
106,1.47357127033233158495957906283186
107,1.47546312357624438954433727561528
108,1.47733735758187773962179853809090
109,1.47919429768436866552958508746518
110,1.48103426028819706052097492189166
111,1.48285755319118367287651892004022
112,1.48466447589392473388693885410799
113,1.48645531989544121017831142087245
114,1.48823036897577191109469789907571
115,1.48998989946619923335098632903209
116,1.49173418050774799352085617902650
117,1.49346347429856608591825391137407
118,1.49517803633075467232551885081482
119,1.49687811561718189630531688101986
120,1.49856395490878827259920273849287
121,1.50023579090285363487096286114840
122,1.50189385444267661192128218005190
123,1.50353837070908540956814767451474
124,1.50516955940418099557904580171774
125,1.50678763492768421877874059224432
126,1.50839280654624319615862076292377
127,1.50998527855603672392785408625089
128,1.51156525043898688125727496237021
129,1.51313291701288192222869941278045
130,1.51468846857569216963593120585940
131,1.51623209104434622016574198142633
132,1.51776396608821979328729238881304
133,1.51928427125757777459344006641219
134,1.52079318010719872838116999573731
135,1.52229086231539304591422353731240
136,1.52377748379862220828206379431441
137,1.52525320682191333482633412169411
138,1.52671819010524957611518091187698
139,1.52817258892611480454098894850445
140,1.52961655521835560964934808454868
141,1.53105023766751904781708610963815
142,1.53247378180281652263131079667348
143,1.53388733008585552215202167066006
144,1.53529102199627375960454086081677
145,1.53668499411440607628918092005032
146,1.53806938020110659674574608154724
147,1.53944431127484042324430653468322
148,1.54080991568616019864088461015086
149,1.54216631918966933856378894147102
150,1.54351364501357557381791694629251
151,1.54485201392693071727366745493834
152,1.54618154430464695442015035912710
153,1.54750235219037860728856623163374
154,1.54881455135735327099861474599263
155,1.55011825336723055893270327468385
156,1.55141356762706632291283005210596
157,1.55270060144445339499481673173666
158,1.55397946008091066899413935495562
159,1.5552502468035841945889462353591
160,1.5565130629353266215514842104589
161,1.5577680079032134902406900186593
162,1.5590151792855558294699795116350
163,1.5602546728574639150621774984005
164,1.5614865826350168257010423440283
165,1.5627110009180863963113515694101
166,1.5639280183318660845709292919685
167,1.5651377238671519828901867686743
168,1.5663402049194186647895068176254
169,1.5675355473267349277814300504750
170,1.5687238354065591758922659211058
171,1.5699051519914546363015932019941
172,1.5710795784637622767775622294375
173,1.5722471947892668262582151337833
174,1.5734080795498917421147055738161
175,1.5745623099754571090496846129839
176,1.5757099619745301760072072019260
177,1.5768511101644017916540707279410
178,1.5779858279002178928528532524968
179,1.5791141873032924910975964348305
180,1.5802362592886331033364365078572
181,1.5813521135917012757933894995179
182,1.5824618187944358962024640831182
183,1.5835654423505623437557897194827
184,1.5846630506102117183306306948076
185,1.5857547088438719571496249973365
186,1.5868404812656918075217776781864
187,1.5879204310561614561956630810401
188,1.5889946203841852516701261201068
189,1.5900631104285702505836280797933
190,1.5911259613989462392910801080392
191,1.5921832325561364532121344124087
192,1.5932349822319953761849908244176
193,1.5942812678487319237071961175959
194,1.5953221459377313508782275378922
195,1.5963576721578938174366832282096
196,1.5973879013135033018256348151814
197,1.5984128873716412396419547983605
198,1.5994326834791590484841651674841
199,1.6004473419792223730894873665057
200,1.6014569144274409909960537270860
201,1.6024614516075953551867080573467
202,1.6034610035469731499046669996683
203,1.6044556195313265144010992082604
204,1.6054453481194615495585978502742
205,1.6064302371574700727833556567106
206,1.6074103337926166399471904202222
207,1.6083856844868867050898877967523
208,1.6093563350302101393714415468760
209,1.6103223305533658521911875926996
210,1.6112837155405790101597996470236
211,1.6122405338418182129723738805552
212,1.6131928286848028533957804736714
213,1.6141406426867250393525169860429
214,1.6150840178657010538779725951512
215,1.6160229956519515592732425116628
216,1.6169576168987245000022357239398
217,1.6178879218929646634669344618053
218,1.6188139503657388712054395493909
219,1.6197357415024200735454101728742
220,1.6206533339526428559363573324255
221,1.6215667658400282593508608870247
222,1.6224760747716951122203981036503
223,1.6233812978475514348391434371320
224,1.6242824716693809756381371835954
225,1.6251796323497274359778824075593
226,1.6260728155205799215086419767920
227,1.6269620563418682630521062168593
228,1.6278473895097700173179966454701
229,1.6287288492648362997100219869007
230,1.6296064693999411355731370693461
231,1.6304802832680561192628398201308
232,1.6313503237898607900673516870475
233,1.6322166234611837106010679643130
234,1.6330792143602903938504212702047
235,1.6339381281550112500893153278747
236,1.6347933961097192525518435594167
237,1.6356450490921609421111890429884
238,1.6364931175801425020990473733742
239,1.6373376316680763389705478298028
240,1.6381786210733903223608206543169
241,1.6390161151428039660089952624446
242,1.6398501428584744056327018631122
243,1.6406807328440162046601330127360
244,1.6415079133703966761910355142997
245,1.6423317123617110944354008778410
246,1.6431521574008403143408810954216
247,1.6439692757349921813339703415232
248,1.6447830942811343118781023077010
249,1.6455936396313132135118519917220
250,1.6464009380578701286397869369176
251,1.6472050155185515016572714815783
252,1.6480058976615168674823295629923
253,1.6488036098302492332725251478444
254,1.6495981770683676097638392725531
255,1.6503896241243455718422507081573
256,1.6511779754561359333010823538227
257,1.6519632552357079267163772177353
258,1.6527454873534933326918279375341
259,1.6535246954227483615195163280322
260,1.6543009027838316731598991331548
261,1.6550741325083988488014545891440
262,1.6558444074035180389388224930181
263,1.6566117500157056380659212777751
264,1.6573761826348874363575210470717
265,1.6581377272982837730888559957881
266,1.6588964057942208590537859078296
267,1.6596522396658714807432834862258
268,1.6604052502149251195204779672442
269,1.6611554585051917552296683059499
270,1.6619028853661350779079464815000
271,1.6626475513963443910841758073684
272,1.6633894769669391857626236981267
273,1.6641286822249138277418487974268
274,1.6648651870964195668306023831045
275,1.6655990112899877430839091603334
276,1.6663301742996924679665080863878
277,1.6670586954082602640114235644445
278,1.6677845936901184171847907491868
279,1.6685078880143935446912951263487
280,1.6692285970478524713632280798825
281,1.6699467392577933037368161658092
282,1.6706623329148841983720101823154
283,1.6713753960959530371550181435700
284,1.6720859466867251664173391584791
285,1.6727940023845160074372629094294
286,1.6734995807008745633793247495819
287,1.6742026989641828822804914781903
288,1.6749033743222078781820903625785
289,1.6756016237446101588020604581285
290,1.6762974640254105926112616275767
291,1.6769909117854124565979774187986
292,1.6776819834745820499762045544506
293,1.6783706953743916799715251899474
294,1.6790570636001200569625835007375
295,1.6797411041031121864948316826143
296,1.6804228326730063441076766633072
297,1.6811022649399180650851273331286
298,1.6817794163765904662774222372556
299,1.6824543023005077032527782755780
300,1.6831269378759733137920240750771
301,1.6837973381161538595829718076682
302,1.6844655178850899594722787178837
303,1.6851314918996718878379717410337
304,1.6857952747315833160561466547044
305,1.6864568808092146260409967771484
306,1.6871163244195450595393985499628
307,1.6877736197099908856261389202891
308,1.6884287806902270653292527945609
309,1.6890818212339785031626960619109
310,1.6897327550807812212340929850312
311,1.6903815958377170513633540110553
312,1.6910283569811193588884033412756
313,1.6916730518582511914586983472800
314,1.6923156936889576576579031967665
315,1.6929562955672918556744023083142
316,1.6935948704631157282504840226261
317,1.6942314312236733831158831391955
318,1.6948659905751422307640482871560
319,1.6954985611241590817579977034436
320,1.6961291553593212054631245139176
321,1.6967577856526662697925808576843
322,1.6973844642611272770621427016232
323,1.6980092033279660106712791959346
324,1.6986320148841839704447301746146
325,1.6992529108499125593222207407485
326,1.6998719030357807593452669026945
327,1.7004890031442631184343904395752
328,1.7011042227710052379039655344502
329,1.7017175734061317363431967708040
330,1.7023290664355331223132406622850
331,1.7029387131421330152368839351581
332,1.7035465247071367765284408651717
333,1.7041525122112619303313648530268
334,1.7047566866359485587294955215326
335,1.7053590588645539872116880959768
336,1.7059596396835278193217618357396
337,1.7065584397835701936265994480924
338,1.7071554697607743227706180142362
339,1.7077507401177493800504893130798
340,1.7083442612647298258074255422651
341,1.7089360435206668881853301549415
342,1.7095260971143046964021854591280
343,1.7101144321852407053389385437267
344,1.7107010587849704061952194557055
345,1.7112859868779181436072811269719
346,1.7118692263424515151113801585246
347,1.7124507869718829194241881127851
348,1.7130306784754550663997567564846
349,1.7136089104793139947490960548999
350,1.7141854925274671410561875427508
351,1.7147604340827285489043715588263
352,1.7153337445276509017272265164249
353,1.7159054331654436650327262240209
354,1.7164755092208787537774759021077
355,1.7170439818411840915084609035507
356,1.7176108600969232724235503450249
357,1.7181761529828645667898730684331
358,1.7187398694188385151509128268723
359,1.7193020182505798579321728062599
360,1.7198626082505627398604691778087
361,1.7204216481188209356033326431290
362,1.7209791464837595798010138650028
363,1.7215351119029529987073117851316
364,1.7220895528639336690858625921344
365,1.7226424777849705424091686538902
366,1.7231938950158356137573443534007
367,1.7237438128385616291895604916728
368,1.7242922394681877221290596912421
369,1.7248391830534976131555115441036
370,1.7253846516777460882752242332693
371,1.7259286533593766109188386353706
372,1.7264711960527290261345154679169
373,1.7270122876487373257235041499398
374,1.7275519359756217848859327166747
375,1.7280901487995661640757471633083
376,1.7286269338253914344699856938482
377,1.7291622986972178185021818665043
378,1.7296962509991183151604746331406
379,1.7302287982557655522060569185295
380,1.7307599479330687244797977316114
381,1.7312897074388034962022765804850
382,1.7318180841232319879590527520128
383,1.7323450852797175256243308894285
384,1.7328707181453291175756102734735
385,1.7333949899014392841738524988658
386,1.7339179076743159009425210160800
387,1.7344394785357038076415732600213
388,1.7349597095034001229600613599061
389,1.7354786075418239425072552617942
390,1.7359961795625776122855725653593
391,1.7365124324249998977375787194938
392,1.7370273729367146599698235159376
393,1.7375410078541725159580582097682
394,1.7380533438831840672216890672240
395,1.7385643876794475573283170749996
396,1.7390741458490706126663873464776
397,1.7395826249490857000590091721000
398,1.7400898314879593131137760690763
399,1.7405957719260934569578190517015
400,1.7411004526763237352724218652183
401,1.7416038801044100926077904153610
402,1.7421060605295209613673463061359
403,1.7426070002247136384710967448615
404,1.7431067054174087891856200181681
405,1.7436051822898565480712123786843
406,1.7441024369796003307071343565234
407,1.7445984755799354776656635891214
408,1.7450933041403602388105019071802
409,1.7455869286670219639994313615339
410,1.7460793551231610198236079939938
411,1.7465705894295466976754108805493
412,1.7470606374649087011679621584516
413,1.7475495050663652975378081252333
414,1.7480371980298445626096204243209
415,1.7485237221105030091614657200151
416,1.7490090830231380343813696229414
417,1.7494932864425970411073457927765
418,1.7499763380041804024816800743483
419,1.7504582433040425550915136384608
420,1.7509390078995862092684884314302
421,1.7514186373098536356666885827270
422,1.7518971370159143168566912395990
423,1.7523745124612468074084067547999
424,1.7528507690521184237286041590872
425,1.7533259121579591507737700127000
426,1.7537999471117333804493884684421
427,1.7542728792103069745375852337324
428,1.7547447137148096742805695707824
429,1.7552154558509967776934894462996
430,1.7556851108096029556456130097028
431,1.7561536837466957195660024036594
432,1.7566211797840256997505215739921
433,1.7570876040093690819048219216871
434,1.7575529614768733098977511126753
435,1.7580172572073938887103262035436
436,1.7584804961888301992140612762401
437,1.7589426833764584970826485487535
438,1.7594038236932610891789197656150
439,1.7598639220302523803299580027907
440,1.7603229832468028736613877993367
441,1.7607810121709582966662242370929
442,1.7612380135997574293452158980519
443,1.7616939922995482951972476118282
444,1.7621489530062973479059481046081
445,1.7626029004259009982784256706678
446,1.7630558392344905201011405948962
447,1.7635077740787375188508043535962
448,1.7639587095761531966788581024244
449,1.7644086503153892698733747173316
450,1.7648576008565327074262844364117
451,1.7653055657314018104973441618479
452,1.7657525494438364913457436413799
453,1.7661985564699885125716427353267
454,1.7666435912586080939508839421909
455,1.7670876582313305296570790192360
456,1.7675307617829581323943174777981
457,1.7679729062817422203083398537825
458,1.7684140960696615633818826687129
459,1.7688543354626998247242794276821
460,1.7692936287511216612798742489660
461,1.7697319801997453566047309215899
462,1.7701693940482152224196175503681
463,1.7706058745112723971662356985658
464,1.7710414257790222277367365224391
465,1.7714760520172022292076653762344
466,1.7719097573674477802654722207727
467,1.7723425459475548627177605666890
468,1.7727744218517448895628488946408
469,1.7732053891509241281197528345725
470,1.7736354518929452735828733159493
471,1.7740646141028654719842579835172
472,1.7744928797832051231486886017261
473,1.7749202529142028486581458689656
474,1.7753467374540741641156941965105
475,1.7757723373392628149866549680756
476,1.7761970564846973276302397785835
477,1.7766208987840431476501996835204
478,1.7770438681099550820771000899565
479,1.7774659683143289767126948550550
480,1.7778872032285530666700496544892
481,1.7783075766637575960022823844219
482,1.7787270924110663218220623238315
483,1.7791457542418453312317823857647
484,1.7795635659079520408852522333324
485,1.7799805311419859079560366834063
486,1.7803966536575354911047701064698
487,1.7808119371494287660147599632983
488,1.7812263852939813498331254778118
489,1.7816400017492459226150574033325
490,1.7820527901552607710681126113326
491,1.7824647541342996533852659286598
492,1.7828758972911216402882168337266
493,1.7832862232132209767882126063277
494,1.7836957354710781308261605799274
495,1.7841044376184102962064202450994
496,1.7845123331924246720317365609569
497,1.7849194257140702849729701008460
498,1.7853257186882923835801691695825
499,1.7857312156042869891973009029624
500,1.786135919935757824627886405290
501,1.786539835141171460831565902839
502,1.786942964664018234800729761537
503,1.787345311933070508646833019097
504,1.787746880362646219729198795437
505,1.788147673352870679554246481393
506,1.788547694289942466283557400314
507,1.788946946546401378315834529213
508,1.789345433481398213229910750143
509,1.789743158440964732448379301960
510,1.790140124758289999689161920739
511,1.790536335753996464751202625044
512,1.790931794736419839176213507137
513,1.791326505001891532059020734271
514,1.791720469835024481471689342187
515,1.792113692509002921584365903108
516,1.792506176285874468767004693923
517,1.792897924416845781834520893730
518,1.793288940142583770041977254592
519,1.793679226693519327237381452700
520,1.794068787290156654232056295423
521,1.794457625143385178742048923720
522,1.794845743454798572722517859952
523,1.795233145417017537844074447027
