Eigenstate,Potential Energy
1,0.500000000019367400964257867681420367
2,0.64623093777753485926308226129440521
3,0.73633761007632445173845928753013483
4,0.79966527858771489052939722678155907
5,0.8480465766255023485109735144370583
6,0.8870659989434996426637289020621452
7,0.9197208269794770074804848128681881
8,0.9477838471101733892625809117778763
9,0.9723835583417510627644159764258768
10,0.9942802148227100030453382121581006
11,1.0140093866940412613268270224171792
12,1.0319621692603403844341637521911485
13,1.0484326925873892983405565943013987
14,1.0636476543583121302909836187871746
15,1.0777854356877566509845145560227061
16,1.090988905992337244066895342741397
17,1.103374256452137977645365837210656
18,1.115037251016911307030686166037543
19,1.126057749510055236053008592705093
20,1.136503045262549483205576335864286
21,1.146430371194652490108944161595101
22,1.155888810974641448892994410220921
23,1.164920776955336890833257629547305
24,1.173563167574524803600239151107280
25,1.181848284150882996850152515977040
26,1.189804564691568837268520955143774
27,1.197457176854795075462544194630671
28,1.204828501308869679634885825595645
29,1.211938528934147770602257157750189
30,1.218805189664856184214204242629522
31,1.225444626621812687708214225508535
32,1.231871426109162292217770074398558
33,1.238098811738605299822469747636039
34,1.244138809194045457606641908538907
35,1.250002386810391525679631015363235
36,1.255699576106766687713384426548041
37,1.261239575610295684160961766988600
38,1.266630840676220805280313970598807
39,1.271881161512249231652640097598541
40,1.276997731219213426406867655641618
41,1.281987205343376009695836905761453
42,1.286855754180717944509452203897978
43,1.291609108867062518030887462513882
44,1.296252602119793587268680031136258
45,1.300791204359356988726306475387249
46,1.305229555825597729299052703956082
47,1.309571995210508963274784359873700
48,1.313822585251382396082509113298707
49,1.317985135663687211549097547856810
50,1.32206322373888190578221050066026
51,1.32606021288689644833418389730156
52,1.32997926936467697700999637260437
53,1.33382337739973511414298563383407
54,1.33759535289008286071138489943339
55,1.34129785583845853216162931190061
56,1.34493340165867462968323393108116
57,1.34850437147471957556445611011363
58,1.35201302151844805496996300490339
59,1.35546149171894075920909920224148
60,1.35885181356558981786325643310290
61,1.36218591731740197963815030146329
62,1.36546563862271059669495643844236
63,1.36869272460624557819509393280191
64,1.37186883947419799887258343756937
65,1.37499556968238120847609774338702
66,1.37807442870774294886969620833289
67,1.38110686145922069425616566851057
68,1.38409424836017626917905529654833
69,1.38703790913133312823325100092728
70,1.38993910630021141315049159764562
71,1.39279904846045719919544281060947
72,1.39561889330216410042859283665135
73,1.39839975043223239698899967112351
74,1.40114268400199199899746360501553
75,1.40384871515768446057792062505780
76,1.40651882432794970073981102195128
77,1.40915395336116068944624130246023
78,1.41175500752428355901270203917014
79,1.41432285737389378098899270566795
80,1.41685834050904092303267212470030
81,1.41936226321480515880580509523445
82,1.42183540200462725337335575496777
83,1.42427850506880501279197363507514
84,1.42669229363592489486183053501138
85,1.42907746325343820184052221458913
86,1.43143468499307541052878365862190
87,1.43376460658633472433789920922892
88,1.43606785349485755421302715412244
89,1.43834502992012013312518588004994
90,1.44059671975652725211536972557873
91,1.44282348749167265382360457465477
92,1.44502587905724232189660685414142
93,1.44720442263377464961212386426932
94,1.44935962941224854231990566229375
95,1.45149199431524935427027474246269
96,1.45360199668026073828482356469472
97,1.45569010090744614461418135145395
98,1.45775675707411083103307795202540
99,1.45980240151788177403380746466489
100,1.46182745739049653056314188813415
101,1.46383233518396279559324920497735
102,1.46581743323072482609610510291979
103,1.46778313817936498837799735855557
104,1.46972982544726142102033165716307
105,1.47165785965152973191601612252210
106,1.47356759501948588364701669754971
107,1.47545937577978933949326559692487
108,1.47733353653534630280868561135587
109,1.47919040261898428896596860952034
110,1.48103029043284684894666686711356
111,1.48285350777239140245464004664742
112,1.48466035413582370479742956816204
113,1.48645112101974693598603659531725
114,1.48822609220175464274727760804989
115,1.48998554401065631564027960537624
116,1.49172974558497605182048362128246
117,1.49345895912033304098774942139268
118,1.49517344010627158094958369661601
119,1.49687343755307461551422256070173
120,1.49855919420906894519330627807135
121,1.50023094676889199394967947812969
122,1.50188892607317110209303157506992
123,1.50353335730003412249412536101015
124,1.50516446014885241747966654840399
125,1.50678244901658778750681609535148
126,1.50838753316709966541870477320083
127,1.50997991689374833219599888622578
128,1.51155979967560732292961954424191
129,1.51312737632758611850163100484500
130,1.51468283714474583659404878162365
131,1.51622636804107523152724255277439
132,1.51775815068297933522879418458317
133,1.51927836261772129004975076302190
134,1.52078717739704664818632120887534
135,1.52228476469620130412257767674818
136,1.52377129042855053897941335867921
137,1.52524691685599334771133470427216
138,1.52671180269535260810214548346185
139,1.52816610322091954460490877885897
140,1.52960997036331549410335482257463
141,1.53104355280482942318189713735520
142,1.53246699607138157322435989745974
143,1.53388044262125495949227093420463
144,1.53528403193072927069647588911108
145,1.53667790057674752781689182559105
146,1.53806218231673799217415158277196
147,1.53943700816570560979097115551677
148,1.54080250647070832104771323460975
149,1.54215880298282003656230061445970
150,1.54350602092668392014753209492060
151,1.54484428106775189307494576006177
152,1.54617370177730065878986566169528
153,1.54749439909531319774551568685401
154,1.54880648679130963157207927968510
155,1.55011007642320569254687381994817
156,1.55140527739427666470167612544646
157,1.55269219700829784314326298313928
158,1.55397094052293332966065890391604
159,1.5552416112014368374247102979822
160,1.5565043103627308422897721633072
161,1.5577591374299225767886275571565
162,1.5590061899773163278921104399617
163,1.5602455637759768918028745753535
164,1.5614773528378988223483830288237
165,1.5627016494588300731608685733699
166,1.5639185442598005492030937359814
167,1.5651281262274027999294527552102
168,1.5663304827528675429659747741687
169,1.5675256996699790803699225758875
170,1.5687138612918703505547401686208
171,1.5698950504467378103111635815593
172,1.5710693485125140135524834637095
173,1.5722368354505332890846946065138
174,1.5733975898382263608855742927926
175,1.5745516889008778957956333212461
176,1.5756992085424766849437571097409
177,1.5768402233756917194149327008764
178,1.5779748067510033145261930272787
179,1.5791030307850157276264670999756
180,1.5802249663879822157891432105661
181,1.5813406832905651819533108881197
182,1.5824502500698591048688814950243
183,1.5835537341746993020892464810904
184,1.5846512019502807675172663421215
185,1.5857427186621088915974809128692
186,1.5868283485193030327434379326578
187,1.5879081546972767404669806394270
188,1.5889821993598100664932383039426
189,1.5900505436805376949181298724514
190,1.5911132478638685424521944987093
191,1.5921703711653560512682115336835
192,1.5932219719115355566205921322525
193,1.5942681075192470330488942844941
194,1.5953088345144565599118660561631
195,1.5963442085505944385739161201582
196,1.5973742844264236531065942470074
197,1.5983991161034530497882079430493
198,1.5994187567229093973425603184815
199,1.6004332586222811617321768579577
200,1.6014426733514479356668768942774
201,1.6024470516884064992062983869930
202,1.6034464436546068875676225344671
203,1.6044408985299091208203064276161
204,1.6054304648671722103292179699429
205,1.6064151905064854072580288744386
206,1.6073951225890547118296486494395
207,1.6083703075707505139689793877297
208,1.6093407912353305867325178968849
209,1.6103066187073441753521784559282
210,1.6112678344647286774922270536100
211,1.6122244823511062736755652932553
212,1.6131766055877907350012665043420
213,1.6141242467855087860411556132525
214,1.6150674479558509985987602140104
215,1.6160062505224514225551306559575
216,1.6169406953319099082518908706291
217,1.6178708226644610794466666509124
218,1.6187966722443989292836592090672
219,1.6197182832502603122080261403341
220,1.6206356943247798399444229803647
221,1.6215489435846140838220786777087
222,1.6224580686298522808042571283237
223,1.6233631065533071040455746958738
224,1.6242640939496005572675951965878
225,1.6251610669240475494872231604623
226,1.6260540611013406880307823463422
227,1.6269431116340449326721284766835
228,1.6278282532109039210859647595981
229,1.6287095200649651177514708137739
230,1.6295869459815284725343973065981
231,1.6304605643059203782018338649147
232,1.6313304079511033357739902375586
233,1.6321965094051163132009604473998
234,1.6330589007383619434136586037864
235,1.6339176136107337328320973685201
236,1.6347726792785929790823232398884
237,1.6356241286015990180316597391320
238,1.6364719920493945311357329954169
239,1.6373162997081513486592312861499
240,1.6381570812869789021688031717921
241,1.6389943661241996076276356457115
242,1.6398281831934940350225149835770
243,1.6406585611099198952764421304774
244,1.6414855281358065326628095605138
245,1.6423091121865292958111918137421
246,1.6431293408361663058516063818835
247,1.6439462413230390034615103178858
248,1.6447598405551440553484837393131
249,1.6455701651154715886626774996226
250,1.6463772412672201374380172682696
251,1.6471810949589062004675615729628
252,1.6479817518293712085061666378527
253,1.6487792372126909723969411456434
254,1.6495735761429872683717198808908
255,1.6503647933591454399481568878317
256,1.6511529133094381011835041359643
257,1.6519379601560613320224407150253
258,1.6527199577795798097909227004180
259,1.6534989297832876796796007702776
260,1.6542748994974855499142810399694
261,1.6550478899836739246635898755107
262,1.6558179240386677994090222852280
263,1.6565850241986312686569403476841
264,1.6573492127430375961436223357752
265,1.6581105116985532720584696341639
266,1.6588689428428482243155380660963
267,1.6596245277083353964029538644728
268,1.6603772875858397248068810925855
269,1.6611272435282007852066711732387
270,1.6618744163538048308628558945378
271,1.6626188266500555064317641653361
272,1.6633604947767772160481592512008
273,1.6640994408695585880672869389842
274,1.6648356848430332447609851625071
275,1.6655692463941017518240089854656
276,1.6663001450050930253197368066433
277,1.6670283999468726793558457254844
278,1.6677540302818900684139516011739
279,1.6684770548671755267784750974193
280,1.6691974923572798979106691034024
281,1.6699153612071642425713585771687
282,1.6706306796750372219409603500952
283,1.6713434658251433681633969859504
284,1.6720537375304993988294211919073
285,1.6727615124755853826400164818459
286,1.6734668081589867809755637226820
287,1.6741696418959924246419053132932
288,1.6748700308211448275495986480169
289,1.6755679918907474853708035761510
290,1.6762635418853298916809557272763
291,1.6769566974120681125058786097165
292,1.6776474749071638041608326979555
293,1.6783358906381855801362535204589
294,1.6790219607063677639248069850148
295,1.6797057010488686149145877320781
296,1.6803871274409956128885673869963
297,1.6810662554983877328349488964030
298,1.6817431006791640267998307087625
299,1.6824176782860353156173188669637
300,1.6830900034683807411001074830542
301,1.6837600912242895901056840767419
302,1.6844279564025704833882177278682
303,1.6850936137047251023420257717875
304,1.6857570776868900311432618038906
305,1.6864183627617481427934202387654
306,1.6870774832004087922615443931409
307,1.6877344531342539986756111685112
308,1.6883892865567580949887360279941
309,1.6890419973252769343824944607644
310,1.6896925991628069885510757594644
311,1.6903411056597179327659437833484
312,1.6909875302754562308504985958697
313,1.6916318863402211128106538917767
314,1.6922741870566147493918977301257
315,1.6929144455012659432029439211559
316,1.6935526746264287120449915834542
317,1.6941888872615533030486095375439
318,1.6948230961148349888601111206399
319,1.6954553137747377874368587833821
320,1.6960855527114931067062173147013
321,1.6967138252785772330199893779453
322,1.6973401437141637778319857672849
323,1.6979645201425545966352780796565
324,1.6985869665755881572952611832707
325,1.6992074949140271197569934631418
326,1.6998261169489233643500449696605
327,1.7004428443629632894433854267070
328,1.7010576887317905676420481274918
329,1.7016706615253113353807386654916
330,1.7022817741089782475776304745193
331,1.7028910377450548359212641555832
332,1.7034984635938612320113769324241
333,1.7041040627150016338883084658372
334,1.7047078460685716999529196189157
335,1.7053098245163501851889554762062
336,1.7059100088229708777178826502260
337,1.7065084096570777079113169227483
338,1.7071050375924640888915284303651
339,1.7076999031091925529058317715450
340,1.7082930165947007748939088428137
341,1.7088843883448896968042720848626
342,1.7094740285651962497878509098050
343,1.7100619473716503120366664811457
344,1.7106481547919158959530977246921
345,1.7112326607663183839625047530989
346,1.7118154751488552877427859639274
347,1.7123966077081940962078112957055
348,1.7129760681286540239474839735201
349,1.7135538660111752050273143511267
350,1.7141300108742728744670083152406
351,1.7147045121549786249801602690843
352,1.7152773792097684213192145379555
353,1.7158486213154766565827557403720
354,1.7164182476701976649407213459003
355,1.7169862673941750560405099174835
356,1.7175526895306770808620078951048
357,1.7181175230468612680461481800225
358,1.7186807768346275746836747142728
359,1.7192424597114557966893559105627
360,1.7198025804212361766671812066203
361,1.7203611476350849541221530400174
362,1.7209181699521513396057665808577
363,1.7214736559004105083954118748648
364,1.7220276139374476376893743112058
365,1.7225800524512312236719115636264
366,1.7231309797608745561065604305964
367,1.7236804041173882424563331169390
368,1.7242283337044205702481686239015
369,1.7247747766389903402165011341416
370,1.7253197409722078833900668261976
371,1.7258632346899871154206203956254
372,1.7264052657137475846226835666193
373,1.7269458419011064804295354909974
374,1.7274849710465649107350082718547
375,1.7280226608821791396809092317014
376,1.7285589190782282420961094491319
377,1.7290937532438699637877285902281
378,1.7296271709277879550865126768205
379,1.7301591796188322174381512947931
380,1.7306897867466495197955411689041
381,1.7312189996823066602382194214380
382,1.7317468257389036909788843513156
383,1.7322732721721817814086234265812
384,1.7327983461811206828718341626983
385,1.7333220549085294164151212700512
386,1.7338444054416308421520929080824
387,1.7343654048126358595694422774481
388,1.7348850599993111755605794429580
389,1.7354033779255413148600729742729
390,1.7359203654618820619717182918223
391,1.7364360294261056515168672459156
392,1.7369503765837413153655621390498
393,1.7374634136486086600220432130666
394,1.7379751472833424553462384225519
395,1.7384855840999116914679036355502
396,1.7389947306601325547454534955854
397,1.7395025934761749526605111753226
398,1.7400091790110625957666187386596
399,1.7405144936791652024661914705576
400,1.7410185438466871265566759076249
401,1.7415213358321484564481978196257
402,1.7420228759068593312523340959509
403,1.7425231702953902944641163073093
404,1.7430222251760365783097182577248
405,1.7435200466812737841874402605421
406,1.7440166408982110682187662310905
407,1.7445120138690389486120603625792
408,1.7450061715914692380149106032533
409,1.7454991200191699619140316558874
410,1.7459908650621977775436744877338
411,1.7464814125874221533018879598716
412,1.7469707684189448912460524954209
413,1.7474589383385160717093227312021
414,1.7479459280859428438649579581316
415,1.7484317433594953461830017767995
416,1.7489163898163061863943093755474
417,1.7493998730727663294300080229761
418,1.7498821987049145565547978158516
419,1.7503633722488247741873000247612
420,1.7508433992009861543110100325817
421,1.7513222850186800586414056671439
422,1.7518000351203530281327107576105
423,1.7522766548859836739463986808548
424,1.7527521496574470835870170486214
425,1.7532265247388731215464602476178
426,1.7536997853970022312772739927595
427,1.7541719368615362231057845575096
428,1.7546429843254840617524194610337
429,1.7551129329455065658268891951275
430,1.7555817878422528813833803898998
431,1.7560495541006962331690855012288
432,1.7565162367704661030589398882705
433,1.7569818408661721735520568706349
434,1.7574463713677311342447496987384
435,1.7579098332206841749319917604841
436,1.7583722313365130663047552484222
437,1.7588335705929529895892815865549
438,1.7592938558343010971689310950076
439,1.7597530918717214854688011188522
440,1.7602112834835476512916947538824
441,1.7606684354155795914332230121077
442,1.7611245523813791091970843464695
443,1.7615796390625629754794921910524
444,1.7620337001090885637676033735689
445,1.7624867401395412896835304134271
446,1.7629387637414148793958416902947
447,1.7633897754713916360394388694797
448,1.7638397798556159223165073845557
449,1.7642887813899686997549597902205
450,1.7647367845403352770357018183080
451,1.7651837937428737704537310912967
452,1.7656298134042771178309346500707
453,1.7660748479020343889216884108326
454,1.7665189015846877812292669958612
455,1.7669619787720889250738495381270
456,1.7674040837556497948790988744130
457,1.7678452207985929223521817246379
458,1.7682853941361973074205277774833
459,1.7687246079760425408174292897535
460,1.7691628664982507806252787564638
461,1.7696001738557244324676039658821
462,1.7700365341743827463655182095477
463,1.7704719515533959339948268622004
464,1.7709064300654149672143211428684
465,1.7713399737568010265651037610503
466,1.7717725866478517304016781666307
467,1.7722042727330234251346512468150
468,1.7726350359811545521887521178097
469,1.7730648803356825683359985483415
470,1.7734938097148619439068301896366
471,1.7739218280119775059476183572130
472,1.7743489390955574238983356036459
473,1.7747751468095811886530491126117
474,1.7752004549736900889577906617890
475,1.7756248673833891078602767610088
476,1.7760483878102527529767295012122
477,1.7764710200021251535300733081395
478,1.7768927676833191001071488720328
479,1.7773136345548129164754097551328
480,1.7777336242944455579975954356900
481,1.7781527405571084874746221642847
482,1.7785709869749378971590118348201
483,1.7789883671575026568901586527653
484,1.7794048846919908080597160566822
485,1.7798205431433960802357816414579
486,1.7802353460546990151902935741527
487,1.7806492969470495470633894267183
488,1.7810623993199456351000955080560
489,1.7814746566514111770084695865973
490,1.7818860723981710659309468141761
491,1.7822966499958255251764505169805
492,1.7827063928590223087623718904791
493,1.7831153043816267426346371161063
494,1.7835233879368907004642125767299
495,1.7839306468776187063699078896351
496,1.7843370845363344088424600143902
497,1.7847427042254431112399874151621
498,1.7851475092373943039566587315344
499,1.7855515028448416954302588846841
500,1.785954688300802872303771058115
501,1.786357068838814334591344066950
502,1.786758647673089360838081625657
503,1.787159427998670171205017156486
504,1.787559412991582232117683609405
505,1.787958605808983549741049633233
506,1.788357009589314682161443400406
507,1.788754627452447318092289823544
508,1.789151462499831061847459843625
509,1.789547517814636655254792098519
510,1.789942796461901689523551026552
511,1.790337301488672037918062924950
512,1.790731035924142909205737697199
513,1.791124002779798137389691383030
514,1.791516205049548383959633314256
515,1.791907645709868626731548674590
516,1.792298327719933145436286005479
517,1.792688254021749078619699237880
518,1.793077427540290337063922980133
519,1.793465851183628655497658438448
520,1.793853527843064639423263720710
521,1.794240460393255602113558570777
522,1.794626651692344467803905304824
523,1.795012104582086178061655745964
