Eigenstate,Potential Energy
1,0.500000000074824404669590479370759954
2,0.64623093813953011569031589998881992
3,0.73633761113966012531367338679701890
4,0.79966528080253257566852926158761802
5,0.8480465804620438561434612249362436
6,0.8870660048802518137619708892976993
7,0.9197208354988053747975457177631785
8,0.9477838586965028456622447616094233
9,0.9723835734807213512999700028370820
10,0.9942802340007484557784924050582435
11,1.0140094103981319616539684443678983
12,1.0319621979778934256880282302728948
13,1.0484327268061645370232747035667063
14,1.0636476945663743029182973014773876
15,1.0777854823734494138998134274285335
16,1.090988959644269101669719452904827
17,1.103374317559175945861759774435980
18,1.115037320068179766250279140519092
19,1.126057826994938360917890006069457
20,1.136503131670696197720429688541315
21,1.146430467015983244562085265773808
22,1.155888916699356337010247009543198
23,1.164920893073924770674321339415295
24,1.173563294577773182706080896360961
25,1.181848422529888508327197486862407
26,1.189804714937748179484528103609769
27,1.197457339459896320531004748388698
28,1.204828676764983879191717549116995
29,1.211938717733720804359412974217576
30,1.218805392300700809298570412761340
31,1.225444843587120756143086484918011
32,1.231871657897517110961675622813157
33,1.238099058843994113163711029803608
34,1.244139072110872035858682387668390
35,1.250002666033488847345728133976990
36,1.255699872131409704815628384728361
37,1.261239888932214162425710115501237
38,1.266631171791612232461749483126190
39,1.271881510917791788550969025157312
40,1.276998099412079016166805242795662
41,1.281987592821243341806988210546505
42,1.286856161441785670613545999068806
43,1.291609536410062417202576907364759
44,1.296253050444003798900852262853762
45,1.300791673964615291536686028857857
46,1.305230047212314865297134076113848
47,1.309572508879682005798471460302317
48,1.313823121704608161241923229040154
49,1.317985695403175712608145546505063
50,1.32206380726746985017276279264289
51,1.32606082070806077713828442964087
52,1.32997990198254844686598014727517
53,1.33382403531911192163522790105490
54,1.33759603661644430939339334738505
55,1.34129856587797874244027270967505
56,1.34493413851823629186009469727616
57,1.34850513566192774638998994722414
58,1.35201381354164399811891475747802
59,1.35546231208721583013182388517799
60,1.35885266278879939350900965341003
61,1.36218679590617943358306849712303
62,1.36546654708848132024045333114549
63,1.36869366346124104803187027891073
64,1.37186980923146989193214284151620
65,1.37499657085581556461605953845011
66,1.37807546181207438206116124881408
67,1.38110792701004665296163411473415
68,1.38409534687397134662806352737746
69,1.38703904112546342332022072724558
70,1.38994027229294894269495054700104
71,1.39280024897099436232019168798141
72,1.39562012885062819582490697321139
73,1.39840102153970019385157064936200
74,1.40114399119050436242398253091029
75,1.40385005895026103224035669216199
76,1.40652020524860363564548517715656
77,1.40915537193491344961790803708197
78,1.41175646427717976492730531750694
79,1.41432435283301612162487464140846
80,1.41685987520252512538473933721852
81,1.41936383767185501773794849113741
82,1.42183701675552972268665981814516
83,1.42428016064494535839638725946919
84,1.42669399056980191094808571229719
85,1.42907920207867949095797895560213
86,1.43143646624445272848350679790289
87,1.43376643079977939083419560432647
88,1.43606972120747593017020104535269
89,1.43834694167020916560980963334361
90,1.44059867608359008783797145920135
91,1.44282548893643432215728819069961
92,1.44502792616166548838352719381060
93,1.44720651594107544093236944083333
94,1.44936176946691244370585401173235
95,1.45149418166304718035813098156020
96,1.45360423186826467840358593546116
97,1.45569238448404588352109321412352
98,1.45775908958902974611314354542044
99,1.45980478352219320998996692600669
100,1.46182988943664015263234101929226
101,1.46383481782576102233270334682586
102,1.46581996702339934279299476605123
103,1.46778572367955334214476948151075
104,1.46973246321303369864738871901833
105,1.47166055024240532156231995006211
106,1.47357033899645032145881521088513
107,1.47546217370531124225045865556404
108,1.47733638897339438770802346333820
109,1.47919331013504448165987068942783
110,1.48103325359393948096629393284447
111,1.48285652714708849915567040973438
112,1.48466343029426636497712349704085
113,1.48645425453366280433025465293423
114,1.48822928364447547627638140418315
115,1.48998879395713564533325373612604
116,1.49173305461180694060720904392074
117,1.49346232780576593930998860514518
118,1.49517686903023228110195340857620
119,1.49687692729718230598753348378865
120,1.49856274535665436625366788302832
121,1.50023455990501569569798213541774
122,1.50189260178464180626088841852746
123,1.50353709617542718924372383202559
124,1.50516826277852841848688231069424
125,1.50678631599271118661863955347172
126,1.50839146508365760818818032526965
127,1.50998391434656954560978828727750
128,1.51156386326238112665603898699408
129,1.51313150664788154899912836378144
130,1.51468703480003088543297798206058
131,1.51623063363473619929049595344116
132,1.51776248482034030237028672265999
133,1.51928276590606370610212304041209
134,1.52079165044562904072354858882255
135,1.52228930811627910889619984319121
136,1.52377590483339605266083505647297
137,1.52525160286091580468686620365090
138,1.52671656091771838278134163998855
139,1.52817093428017248071729568383891
140,1.52961487488099736247306722903014
141,1.53104853140460050948430544229397
142,1.53247204937904139724403928094452
143,1.53388557126476312741652058956264
144,1.53528923654022646199423676896134
145,1.53668318178457661826801103219191
146,1.53806754075746531463022315299709
147,1.53944244447614235426471315056299
148,1.54080802128993207574394290619143
149,1.54216439695219647148051065561503
150,1.54351169468988861490187520048254
151,1.54485003527079231059546859162072
152,1.54617953706853826658491887089378
153,1.54750031612548573842337145017443
154,1.54881248621355354433686705163073
155,1.55011615889307868740217747128855
156,1.55141144356978045111340714163253
157,1.55269844754990101493110597900668
158,1.55397727609359440790666169088246
159,1.5552480324666274732061763841891
160,1.5565108179904591810628638523132
161,1.5577657320907567862683867043418
162,1.5590128723444082912945391736834
163,1.5602523345250860683341420507318
164,1.5614842126474162768471388048801
165,1.5627085990098026768198801708679
166,1.5639255842359553533169330447066
167,1.5651352573151715846364363903520
168,1.5663377056414115429740811502507
169,1.5675330150512138896774498219205
170,1.5687212698604910081993993859806
171,1.5699025529002440692026991902742
172,1.5710769455512357944672752603092
173,1.5722445277776563219232221787773
174,1.5734053781598180153171468180990
175,1.5745595739259132034384291658436
176,1.5757071909828645552520318603482
177,1.5768483039463013514694784303369
178,1.5779829861696908069489153118741
179,1.5791113097726508888647172225428
180,1.5802333456684755770409566080903
181,1.5813491635908952150302629059282
182,1.5824588321200996473191431113394
183,1.5835624187080471919302710422285
184,1.5846599897030836899537365298154
185,1.5857516103738934401283603504635
186,1.5868373449328029870875205714536
187,1.5879172565584615637668773427901
188,1.5889914074179136242838475983077
189,1.5900598586880871983758349584695
190,1.5911226705767137184691991505529
191,1.5921799023426985419268768911130
192,1.5932316123159585506719960501911
193,1.5942778579167451320306118545825
194,1.5953186956744658815703422451064
195,1.5963541812460229602891738609575
196,1.5973843694336817980474162043719
197,1.5984093142024845185593713846110
198,1.5994290686972222479172750774127
199,1.6004436852589791404973809223242
200,1.6014532154412620624411783519450
201,1.6024577100257269091255517002283
202,1.6034572190375149327676887313645
203,1.6044517917602097348808590270158
204,1.6054414767504265384791891285681
205,1.6064263218520437053783536868391
206,1.6074063742100895173265921730927
207,1.6083816802842900916280488034487
208,1.6093522858622926527006039974842
209,1.6103182360725699024345635836531
210,1.6112795753970169849890510590118
211,1.6122363476832484050224687220860
212,1.6131885961566051265185405131500
213,1.6141363634318762301369971159813
214,1.6150796915247501048124998386732
215,1.6160186218629943798687064780973
216,1.6169531952973785521406634330118
217,1.6178834521123432671825531645111
218,1.6188094320364252270482372600848
219,1.6197311742524409976177960515013
220,1.6206487174074422236344090924009
221,1.6215620996224401537805764352998
222,1.6224713585019166731974638672442
223,1.6233765311431154043179828369398
224,1.6242776541451279353516659616899
225,1.6251747636177777330047908692935
226,1.6260678951903052774174110510166
227,1.6269570840198630622054164026284
228,1.6278423647998222698502856654408
229,1.6287237717678982746222978066581
230,1.6296013387140996593178028905928
231,1.6304750989885025351183860874358
232,1.6313450855088605735290430960054
233,1.6322113307680457359388670117455
234,1.6330738668413358469085992996149
235,1.6339327253935421823245537935568
236,1.6347879376859867712271172312925
237,1.6356395345833330314823254462190
238,1.6364875465602714703481505884472
239,1.6373320037080658855573135923418
240,1.6381729357409622203767891332828
241,1.6390103720024643540340836682259
242,1.6398443414714796835038950789882
243,1.6406748727683385274729749819820
244,1.6415019941606890407623066575828
245,1.6423257335692720123628836840715
246,1.6431461185735780656992929820899
247,1.6439631764173886429517974721844
248,1.6447769340142083540389823474544
249,1.6455874179525836588255868896622
250,1.6463946545013182667240861343346
251,1.6471986696145831531688275495400
252,1.6479994889369239909277104781143
253,1.6487971378081710679224828331460
254,1.6495916412682513478843371265769
255,1.6503830240619065533423199836433
256,1.6511713106433173557839226237728
257,1.6519565251806400638034160078521
258,1.6527386915604522533706739717852
259,1.6535178333921141431448771454486
260,1.6542939740120461006145155018873
261,1.6550671364879225921974287394700
262,1.6558373436227873021116487125259
263,1.6566046179590882699833676752122
264,1.6573689817826384974320628932431
265,1.6581304571265005482468334665874
266,1.6588890657747973092759101486530
267,1.6596448292664521246510574487782
268,1.6603977688988583364380516585157
269,1.6611479057314825010052991196163
270,1.6618952605893970046296147999004
271,1.6626398540667513616714135798121
272,1.6633817065301761742617126669630
273,1.6641208381221271959935242569373
274,1.6648572687641667080170668575398
275,1.6655910181601860824987616639187
276,1.6663221057995678111823927008715
277,1.6670505509602944824501606321945
278,1.6677763727119964609187897294245
279,1.6684995899189497721291421180257
280,1.6692202212430162852884263195678
281,1.6699382851465340829861983683908
282,1.6706537998951555142496071884668
283,1.6713667835606361434855002170477
284,1.6720772540235717519464519973208
285,1.6727852289760901990867430985611
286,1.6734907259244941686584262507803
287,1.6741937621918598589486923603427
288,1.6748943549205880190444491570400
289,1.6755925210749119793015451575145
290,1.6762882774433634086607810503952
291,1.6769816406411936398687125463945
292,1.6776726271127534476292533026665
293,1.6783612531338351855825595769087
294,1.6790475348139723191511558297726
295,1.6797314880986984415232076117475
296,1.6804131287717733584642162144751
297,1.6810924724573661738130416508609
298,1.6817695346222046925472518997386
299,1.6824443305776879444118155442969
300,1.6831168754819635788525632850840
301,1.6837871843419705428330895052942
302,1.6844552720154491346102362889081
303,1.6851211532129156067424800580465
304,1.6857848424996048960086790478728
305,1.6864463542973829089164007196641
306,1.6871057028866276261720018014560
307,1.6877629024080762082446483099538
308,1.6884179668646455806331759457500
309,1.6890709101232225882851031475775
310,1.6897217459164240545003856632510
311,1.6903704878443303394142707822519
312,1.6910171493761899113858179537501
313,1.6916617438520963242364364891925
314,1.6923042844846394048146758893051
315,1.6929447843605299707343390205871
316,1.6935832564421994541357870306393
317,1.6942197135693719702876916548099
318,1.6948541684606141824900023410266
319,1.6954866337148601050604969211744
320,1.6961171218129108458856863285435
321,1.6967456451189132076991585995743
322,1.6973722158818132627509514172222
323,1.6979968462367884151417687937994
324,1.6986195482066569282041798164659
325,1.6992403337032666791551930666581
326,1.6998592145288613784974095534693
327,1.7004762023774270751783195353240
328,1.7010913088360161369606646017505
329,1.7017045453860536811272540537103
330,1.7023159234046228874529397899945
331,1.7029254541657306322958773053452
332,1.7035331488415545053084345056844
333,1.7041390185036715875915018944329
334,1.7047430741242671755846495521876
335,1.7053453265773277659027870374674
336,1.7059457866398143594529952576027
337,1.7065444649928189573651626773949
338,1.7071413722227053078819677923289
339,1.7077365188222299690148006057591
340,1.7083299151916497786114828330367
341,1.7089215716398114457248847503844
342,1.7095114983852257607503789208098
343,1.7100997055571260624448035343594
344,1.7106862031965109558658093933554
345,1.7112710012571731009024820478850
346,1.7118541096067115465376661830194
347,1.7124355380275311765514240851206
348,1.7130152962178260787488024461506
349,1.7135933937925503830012187271551
350,1.7141698402843741108180165894091
351,1.7147446451446261244299547730201
352,1.7153178177442238581429457954446
353,1.7158893673745891167334360441797
354,1.7164593032485513557708344069743
355,1.7170276345012388095629627433663
356,1.7175943701909556769371415032703
357,1.7181595193000486043326697913380
358,1.7187230907357617106534644770581
359,1.7192850933310758994752739885995
360,1.7198455358455413969933391014999
361,1.7204044269660952610550042420233
362,1.7209617753078703433621325901227
363,1.7215175894149903009535409209823
364,1.7220718777613556814672762724451
365,1.7226246487514193190676355624091
366,1.7231759107209499192328558863118
367,1.7237256719377867249543905143060
368,1.7242739406025820536272987878020
369,1.7248207248495363377399651784002
370,1.7253660327471213831110240209789
371,1.7259098722987946985706634097206
372,1.7264522514437038541633287189759
373,1.7269931780573808351991489650877
374,1.7275326599524307012587484472579
375,1.7280707048792052423566445772466
376,1.7286073205264730891318727887660
377,1.7291425145220780669407536729164
378,1.7296762944335889619411822224079
379,1.7302086677689425396631472249460
380,1.7307396419770765735394468307584
381,1.7312692244485557595529801520401
382,1.7317974225161876359100711154381
383,1.7323242434556331831549919927641
384,1.7328496944860070691940900577036
385,1.7333737827704711612741082182647
386,1.7338965154168219643639691147448
387,1.7344178994780677361019639510261
388,1.7349379419529992159372554481791
389,1.7354566497867546440084245348393
390,1.7359740298713762597348807711738
391,1.7364900890463585979534883923574
392,1.7370048340991921918821926103683
393,1.7375182717659001573311780614925
394,1.7380304087315662401999991335510
395,1.7385412516308571851076214731230
396,1.7390508070485390770108916878862
397,1.7395590815199872867302142123885
398,1.7400660815316900295532726754291
399,1.7405718135217441037602676250634
400,1.7410762838803471101145257541292
401,1.7415794989502822023384339939299
402,1.7420814650273961149221258260353
403,1.7425821883610732901594968442854
404,1.7430816751547039986780128793974
405,1.7435799315661439201217337004243
406,1.7440769637081712942517513857740
407,1.7445727776489387604458970658702
408,1.7450673794124173900877985197876
409,1.7455607749788357742389620919845
410,1.7460529702851166824278799366323
411,1.7465439712253055539508892261496
412,1.7470337836509944056939391143800
413,1.7475224133717422369785388067032
414,1.7480098661554883567598085067714
415,1.7484961477289629186546837404803
416,1.7489812637780910949793370890562
417,1.7494652199483937398770068552189
418,1.7499480218453817063899051190976
419,1.7504296750349480976538965857999
420,1.7509101850437534358363145093806
421,1.7513895573596077027444179150793
422,1.7518677974318485354887679842948
423,1.7523449106717134151692030978016
424,1.7528209024527094641750421901003
425,1.7532957781109772333742444570869
426,1.7537695429456520879901154986806
427,1.7542422022192206788034955838040
428,1.7547137611578725144200991984825
429,1.7551842249518505490963097099810
430,1.7556535987557936503847675447064
431,1.7561218876890784524571938300124
432,1.7565890968361577468845462534840
433,1.7570552312468907510833416913127
434,1.7575202959368763547408875348280
435,1.7579842958877771703203957127891
436,1.7584472360476422911309342014049
437,1.7589091213312269208806981480471
438,1.7593699566203078593961668957769
439,1.7598297467639955284872650592150
440,1.7602884965790436119228540866222
441,1.7607462108501534721844026527802
442,1.7612028943302769105294410257931
443,1.7616585517409169210187041933339
444,1.7621131877724210609146827316689
445,1.7625668070842767712189595804465
446,1.7630194143053996748870252321178
447,1.7634710140344220251610320771311
448,1.7639216108399745255786120477114
449,1.7643712092609693656012918097340
450,1.7648198138068766278347048793712
451,1.7652674289580015735551776624767
452,1.7657140591657556516087399075492
453,1.7661597088529269775642610414016
454,1.7666043824139466759803086796936
455,1.7670480842151547136779406609567
456,1.7674908185950605251293892875230
457,1.7679325898646031299089874353268
458,1.7683734023074071424349585269032
459,1.7688132601800371923889557556288
460,1.7692521677122504027285030430819
461,1.7696901291072447797177916047551
462,1.7701271485419067328473220323560
463,1.7705632301670563333734935802222
464,1.7709983781076884774673263256699
465,1.7714325964632139279370580311702
466,1.7718658893076973705887922197061
467,1.7722982606900917712621451249860
468,1.7727297146344740548405118308991
469,1.7731602551402745887671587306413
470,1.7735898861825080015821386573353
471,1.7740186117119996097441726698964
472,1.7744464356556117566689621770522
473,1.7748733619164654213837046805206
474,1.7752993943741646074733414100267
475,1.7757245368850124419417662054330
476,1.7761487932822315048551618170429
477,1.7765721673761787300241372767803
478,1.7769946629545595601887632045948
479,1.7774162837826402537621738781420
480,1.7778370336034587456240112301429
481,1.7782569161380326209631278991824
482,1.7786759350855677793212491885313
483,1.7790940941236631774370612539669
484,1.7795113969085144795035914154133
485,1.7799278470751181008285574801178
486,1.7803434482374702390639290364817
487,1.7807582039887677514541316000430
488,1.7811721179016054845171362118860
489,1.7815851935281732945016583512332
490,1.7819974344004506321997857143560
491,1.7824088440304008371668563458473
492,1.7828194259101637406333431239901
493,1.7832291835122465635441136673720
494,1.7836381202897142155421246311396
495,1.7840462396763771995229045311468
496,1.7844535450869803786903486967146
497,1.7848600399173883045159694485012
498,1.7852657275447710641423156064692
499,1.7856706113277881582445158047531
500,1.786074694606772553941864839015
501,1.786477980703910673328171256685
502,1.786880472923425787785609393113
503,1.787282174551756301666973217376
504,1.787683088857736785122672534028
505,1.788083219092774619988464097460
506,1.788482568491028005788168089317
507,1.788881140269583191390469332292
508,1.789278937628630590351664178056
509,1.789675963751638029487250917940
510,1.790072221805527203164584371707
511,1.790467714940846584281553384965
512,1.790862446291944712654297682527
513,1.791256418977142497759304409494
514,1.791649636098905234208338411710
515,1.792042100744014726881974834885
516,1.792433815983739759502864148646
517,1.792824784874006005618003565743
518,1.793215010455567192399086541931
519,1.793604495754174325097262515734
520,1.793993243780745855900848608836
521,1.794381257531535620090002924407
522,1.794768539988302844291560640692
523,1.795155094118480693577714824987
